Wavelength (nm)	J10 abs e
280.00	8940.9
281.00	8879.8
282.00	8880.2
283.00	8943.5
284.00	9058.7
285.00	9223.5
286.00	9421.3
287.00	9644.9
288.00	9878.7
289.00	10148
290.00	10416
291.00	10698
292.00	10970
293.00	11246
294.00	11519
295.00	11783
296.00	12038
297.00	12304
298.00	12578
299.00	12835
300.00	13108
301.00	13405
302.00	13686
303.00	13971
304.00	14257
305.00	14538
306.00	14805
307.00	15026
308.00	15210
309.00	15362
310.00	15436
311.00	15477
312.00	15467
313.00	15413
314.00	15351
315.00	15280
316.00	15181
317.00	15091
318.00	15006
319.00	14932
320.00	14844
321.00	14796
322.00	14709
323.00	14595
324.00	14440
325.00	14268
326.00	14036
327.00	13763
328.00	13463
329.00	13085
330.00	12663
331.00	12236
332.00	11795
333.00	11358
334.00	10936
335.00	10543
336.00	10172
337.00	9832.6
338.00	9539.1
339.00	9279.4
340.00	9051.1
341.00	8863.6
342.00	8712.0
343.00	8577.5
344.00	8454.8
345.00	8359.2
346.00	8285.9
347.00	8226.5
348.00	8190.6
349.00	8157.7
350.00	8141.9
351.00	8127.7
352.00	8124.5
353.00	8134.2
354.00	8162.3
355.00	8192.1
356.00	8220.5
357.00	8240.5
358.00	8263.6
359.00	8286.4
360.00	8298.3
361.00	8310.6
362.00	8335.7
363.00	8336.4
364.00	8323.8
365.00	8331.5
366.00	8306.9
367.00	8309.1
368.00	8290.5
369.00	8272.8
370.00	8252.5
371.00	8238.4
372.00	8208.2
373.00	8181.7
374.00	8157.3
375.00	8108.1
376.00	8072.3
377.00	7978.0
378.00	7894.2
379.00	7816.3
380.00	7710.1
381.00	7597.1
382.00	7482.3
383.00	7339.7
384.00	7191.7
385.00	7030.2
386.00	6880.0
387.00	6740.4
388.00	6575.6
389.00	6437.3
390.00	6298.3
391.00	6150.1
392.00	6003.1
393.00	5865.3
394.00	5764.2
395.00	5644.4
396.00	5522.1
397.00	5394.9
398.00	5278.4
399.00	5161.6
400.00	5074.4
401.00	4967.5
402.00	4856.7
403.00	4762.6
404.00	4656.4
405.00	4576.7
406.00	4504.0
407.00	4440.4
408.00	4383.5
409.00	4338.9
410.00	4283.0
411.00	4257.9
412.00	4219.1
413.00	4202.6
414.00	4191.7
415.00	4187.5
416.00	4178.5
417.00	4176.2
418.00	4177.6
419.00	4191.4
420.00	4203.3
421.00	4226.4
422.00	4245.1
423.00	4269.5
424.00	4301.6
425.00	4355.6
426.00	4413.7
427.00	4495.4
428.00	4561.8
429.00	4653.8
430.00	4745.7
431.00	4842.8
432.00	4971.5
433.00	5117.9
434.00	5256.6
435.00	5399.6
436.00	5569.9
437.00	5747.2
438.00	5937.1
439.00	6129.0
440.00	6341.6
441.00	6562.1
442.00	6752.5
443.00	6984.0
444.00	7235.1
445.00	7475.6
446.00	7744.9
447.00	8019.9
448.00	8296.2
449.00	8589.6
450.00	8892.0
451.00	9211.2
452.00	9565.5
453.00	9912.8
454.00	10304
455.00	10682
456.00	11041
457.00	11458
458.00	11860
459.00	12282
460.00	12705
461.00	13154
462.00	13562
463.00	14042
464.00	14499
465.00	14960
466.00	15381
467.00	15801
468.00	16234
469.00	16635
470.00	17033
471.00	17557
472.00	17964
473.00	18388
474.00	18721
475.00	19141
476.00	19508
477.00	19967
478.00	20406
479.00	20825
480.00	21267
481.00	21720
482.00	22239
483.00	22778
484.00	23257
485.00	23983
486.00	24331
487.00	24754
488.00	25377
489.00	26091
490.00	26629
491.00	27240
492.00	27762
493.00	28294
494.00	28799
495.00	29285
496.00	29913
497.00	30387
498.00	30674
499.00	30936
500.00	31226
501.00	31572
502.00	31914
503.00	31902
504.00	32013
505.00	32079
506.00	32060
507.00	32072
508.00	31958
509.00	31790
510.00	31636
511.00	31363
512.00	31188
513.00	30968
514.00	30967
515.00	30957
516.00	30655
517.00	30567
518.00	30603
519.00	30538
520.00	30606
521.00	30745
522.00	30750
523.00	30863
524.00	31141
525.00	31194
526.00	31366
527.00	31657
528.00	31586
529.00	31901
530.00	31871
531.00	31841
532.00	31761
533.00	31696
534.00	31703
535.00	31568
536.00	31195
537.00	30754
538.00	30375
539.00	29947
540.00	29378
541.00	28669
542.00	27857
543.00	26978
544.00	25976
545.00	24957
546.00	23907
547.00	22723
548.00	21479
549.00	20226
550.00	18936
551.00	17657
552.00	16386
553.00	15173
554.00	14041
555.00	12869
556.00	11798
557.00	10772
558.00	9824.6
559.00	8910.7
560.00	8070.9
561.00	7340.8
562.00	6635.1
563.00	6000.6
564.00	5388.1
565.00	4864.3
566.00	4384.2
567.00	3925.6
568.00	3551.4
569.00	3171.8
570.00	2850.7
571.00	2561.6
572.00	2323.8
573.00	2088.1
574.00	1873.2
575.00	1694.4
576.00	1520.8
577.00	1361.1
578.00	1236.0
579.00	1120.6
580.00	1005.2
581.00	909.03
582.00	827.86
583.00	761.36
584.00	683.40
585.00	619.50
586.00	577.18
587.00	528.34
588.00	481.66
589.00	442.98
590.00	407.22
591.00	383.48
592.00	358.52
593.00	328.56
594.00	304.15
595.00	278.50
596.00	264.57
597.00	247.03
598.00	240.95
599.00	226.20
600.00	214.69
601.00	201.50
602.00	189.27
603.00	178.93
604.00	176.98
605.00	172.78
606.00	164.10
607.00	160.01
608.00	151.39
609.00	149.23
610.00	151.19
611.00	146.58
612.00	139.36
613.00	135.99
614.00	128.89
615.00	126.21
616.00	126.24
617.00	122.70
618.00	130.66
619.00	123.52
620.00	122.89
621.00	109.35
622.00	112.80
623.00	116.09
624.00	119.63
625.00	122.24
626.00	120.00
627.00	113.19
628.00	110.58
629.00	117.09
630.00	113.25
631.00	121.26
632.00	120.50
633.00	124.55
634.00	124.92
635.00	120.30
636.00	120.45
637.00	128.10
638.00	130.51
639.00	123.92
640.00	121.01
641.00	119.56
642.00	123.65
643.00	112.70
644.00	100.73
645.00	101.69
646.00	96.427
647.00	105.45
648.00	100.04
649.00	105.93
650.00	92.153
651.00	100.69
652.00	98.190
653.00	93.114
654.00	112.46
655.00	101.96
656.00	90.690
657.00	84.997
658.00	94.462
659.00	96.527
660.00	93.946
661.00	95.853
662.00	101.45
663.00	90.446
664.00	76.407
665.00	93.501
666.00	99.495
667.00	95.408
668.00	97.344
669.00	89.299
670.00	88.281
671.00	84.868
672.00	91.866
673.00	99.252
674.00	102.56
675.00	94.964
676.00	81.369
677.00	88.625
678.00	90.991
679.00	96.384
680.00	97.058
681.00	91.178
682.00	92.024
683.00	88.037
684.00	92.813
685.00	96.900
686.00	93.860
687.00	86.517
688.00	87.392
689.00	88.955
690.00	91.164
691.00	95.968
692.00	99.180
693.00	86.460
694.00	80.724
695.00	90.274
696.00	91.250
697.00	94.548
698.00	90.748
699.00	94.405
700.00	84.194
