Wavelength (nm)	Q29 abs e
350.00	9624.7
351.00	9410.4
352.00	9171.1
353.00	9006.8
354.00	8828.2
355.00	8658.5
356.00	8501.3
357.00	8383.5
358.00	8303.1
359.00	8208.4
360.00	8129.9
361.00	8172.7
362.00	8235.2
363.00	8301.3
364.00	8362.0
365.00	8562.1
366.00	8674.6
367.00	8838.9
368.00	9030.0
369.00	9246.1
370.00	9412.2
371.00	9617.6
372.00	9817.6
373.00	10078
374.00	10355
375.00	10632
376.00	10952
377.00	11280
378.00	11639
379.00	11995
380.00	12432
381.00	12818
382.00	13272
383.00	13616
384.00	14095
385.00	14654
386.00	15099
387.00	15527
388.00	15919
389.00	16303
390.00	16708
391.00	17094
392.00	17521
393.00	17969
394.00	18453
395.00	18969
396.00	19603
397.00	20282
398.00	21078
399.00	21996
400.00	23013
401.00	24182
402.00	25509
403.00	26970
404.00	28638
405.00	30412
406.00	32371
407.00	34429
408.00	36620
409.00	38847
410.00	41073
411.00	43171
412.00	45098
413.00	46736
414.00	48174
415.00	49231
416.00	50056
417.00	50556
418.00	50894
419.00	51138
420.00	51415
421.00	51839
422.00	52548
423.00	53716
424.00	55418
425.00	57763
426.00	60935
427.00	65085
428.00	70191
429.00	76559
430.00	84174
431.00	93261
432.00	1.0385e+05
433.00	1.1621e+05
434.00	1.3004e+05
435.00	1.4519e+05
436.00	1.6114e+05
437.00	1.7741e+05
438.00	1.9323e+05
439.00	2.0803e+05
440.00	2.2087e+05
441.00	2.3074e+05
442.00	2.3742e+05
443.00	2.4000e+05
444.00	2.3880e+05
445.00	2.3356e+05
446.00	2.2511e+05
447.00	2.1343e+05
448.00	1.9967e+05
449.00	1.8436e+05
450.00	1.6827e+05
451.00	1.5192e+05
452.00	1.3612e+05
453.00	1.2115e+05
454.00	1.0717e+05
455.00	94501
456.00	83120
457.00	73065
458.00	64210
459.00	56634
460.00	49976
461.00	44209
462.00	39142
463.00	34759
464.00	30889
465.00	27472
466.00	24461
467.00	21791
468.00	19408
469.00	17278
470.00	15320
471.00	13616
472.00	12102
473.00	10748
474.00	9576.5
475.00	8556.7
476.00	7611.9
477.00	6826.1
478.00	6118.8
479.00	5520.5
480.00	4982.9
481.00	4532.9
482.00	4123.9
483.00	3807.7
484.00	3488.1
485.00	3220.2
486.00	2993.3
487.00	2812.9
488.00	2621.8
489.00	2461.1
490.00	2318.2
491.00	2193.2
492.00	2086.0
493.00	1989.6
494.00	1886.0
495.00	1819.9
496.00	1736.0
497.00	1684.2
498.00	1618.1
499.00	1575.3
500.00	1521.7
501.00	1507.4
502.00	1455.6
503.00	1434.2
504.00	1425.2
505.00	1393.1
506.00	1375.2
507.00	1375.2
508.00	1364.5
509.00	1366.3
510.00	1352.0
511.00	1350.2
512.00	1352.0
513.00	1362.7
514.00	1368.1
515.00	1373.4
516.00	1387.7
517.00	1412.7
518.00	1441.3
519.00	1464.5
520.00	1486.0
521.00	1532.4
522.00	1614.5
523.00	1661.0
524.00	1734.2
525.00	1786.0
526.00	1855.7
527.00	1902.1
528.00	1964.6
529.00	1995.0
530.00	2027.1
531.00	2050.3
532.00	2096.8
533.00	2130.7
534.00	2153.9
535.00	2178.9
536.00	2211.1
537.00	2207.5
538.00	2266.4
539.00	2250.4
540.00	2271.8
541.00	2286.1
542.00	2303.9
543.00	2314.7
544.00	2303.9
545.00	2309.3
546.00	2336.1
547.00	2343.2
548.00	2352.2
549.00	2353.9
550.00	2382.5
551.00	2375.4
552.00	2418.2
553.00	2462.9
554.00	2477.2
555.00	2511.1
556.00	2595.1
557.00	2673.6
558.00	2784.4
559.00	2877.2
560.00	3048.7
561.00	3230.9
562.00	3441.6
563.00	3704.2
564.00	4018.5
565.00	4395.3
566.00	4784.7
567.00	5281.2
568.00	5813.4
569.00	6356.4
570.00	6940.4
571.00	7494.0
572.00	8056.6
573.00	8628.2
574.00	9139.0
575.00	9631.9
576.00	10068
577.00	10477
578.00	10839
579.00	11145
580.00	11411
581.00	11643
582.00	11809
583.00	11936
584.00	11966
585.00	11989
586.00	11948
587.00	11818
588.00	11680
589.00	11496
590.00	11316
591.00	11114
592.00	10879
593.00	10673
594.00	10473
595.00	10336
596.00	10177
597.00	10093
598.00	9998.0
599.00	9992.7
600.00	10019
601.00	10096
602.00	10225
603.00	10441
604.00	10721
605.00	11055
606.00	11491
607.00	12054
608.00	12715
609.00	13547
610.00	14522
611.00	15724
612.00	17112
613.00	18765
614.00	20689
615.00	22921
616.00	25495
617.00	28472
618.00	31832
619.00	35572
620.00	39667
621.00	44118
622.00	48822
623.00	53726
624.00	58611
625.00	63337
626.00	67805
627.00	71806
628.00	75242
629.00	77971
630.00	79925
631.00	81006
632.00	81308
633.00	80743
634.00	79414
635.00	77346
636.00	74696
637.00	71452
638.00	67791
639.00	63773
640.00	59567
641.00	55252
642.00	50908
643.00	46595
644.00	42425
645.00	38403
646.00	34638
647.00	31085
648.00	27803
649.00	24802
650.00	22098
651.00	19651
652.00	17481
653.00	15502
654.00	13766
655.00	12227
656.00	10882
657.00	9687.3
658.00	8599.6
659.00	7686.9
660.00	6876.1
661.00	6154.5
662.00	5527.7
663.00	4982.9
664.00	4513.2
665.00	4098.9
666.00	3713.1
667.00	3398.8
668.00	3086.2
669.00	2839.7
670.00	2598.6
671.00	2404.0
672.00	2218.2
673.00	2050.3
674.00	1912.8
675.00	1773.5
676.00	1648.5
677.00	1543.1
678.00	1455.6
679.00	1357.4
680.00	1269.8
681.00	1191.3
682.00	1139.5
683.00	1071.6
684.00	1012.7
685.00	959.08
686.00	903.71
687.00	875.14
688.00	816.20
689.00	776.91
690.00	730.47
691.00	707.26
692.00	684.04
693.00	628.67
694.00	605.45
695.00	630.46
696.00	573.31
697.00	555.45
698.00	544.73
699.00	512.58
700.00	478.65
701.00	484.01
702.00	494.72
703.00	475.08
704.00	430.43
705.00	425.07
706.00	408.99
707.00	421.50
708.00	398.28
709.00	387.56
710.00	387.56
711.00	401.85
712.00	389.35
713.00	383.99
714.00	398.28
715.00	373.27
716.00	392.92
717.00	358.99
718.00	373.27
719.00	382.20
720.00	366.13
721.00	378.63
722.00	383.99
723.00	383.99
724.00	364.34
725.00	385.78
726.00	398.28
727.00	400.06
728.00	394.71
729.00	392.92
730.00	376.85
731.00	391.13
732.00	417.92
733.00	412.57
734.00	410.78
735.00	419.71
736.00	410.78
737.00	430.43
738.00	423.28
739.00	423.28
740.00	425.07
741.00	439.36
742.00	455.43
743.00	451.86
744.00	460.79
745.00	448.29
746.00	444.71
747.00	453.64
748.00	471.50
749.00	469.72
750.00	467.93
751.00	476.86
752.00	444.71
753.00	451.86
754.00	457.22
755.00	450.07
756.00	459.00
757.00	453.64
758.00	462.57
759.00	453.64
760.00	482.22
761.00	482.22
762.00	484.01
763.00	494.72
764.00	485.79
765.00	457.22
766.00	484.01
767.00	473.29
768.00	476.86
769.00	455.43
770.00	448.29
771.00	439.36
772.00	419.71
773.00	412.57
774.00	408.99
775.00	419.71
776.00	407.21
777.00	391.13
778.00	380.42
779.00	385.78
780.00	394.71
781.00	421.50
782.00	376.85
783.00	369.70
784.00	346.48
785.00	348.27
786.00	325.05
787.00	319.69
788.00	310.76
789.00	314.34
790.00	307.19
791.00	312.55
792.00	283.97
793.00	282.19
794.00	264.33
795.00	228.61
796.00	226.82
797.00	225.04
798.00	208.96
799.00	192.89
800.00	201.82
