Wavelength (nm)	L10 abs e
200.00	5843.0
201.00	7108.3
202.00	7059.2
203.00	6186.1
204.00	7957.9
205.00	5755.1
206.00	6301.1
207.00	8609.6
208.00	7618.7
209.00	7055.0
210.00	8554.5
211.00	8354.5
212.00	8349.8
213.00	9970.4
214.00	12974
215.00	15245
216.00	16089
217.00	15925
218.00	15217
219.00	14363
220.00	13441
221.00	12516
222.00	11577
223.00	10659
224.00	9773.4
225.00	8976.5
226.00	8262.8
227.00	7651.3
228.00	7116.9
229.00	6635.5
230.00	6205.8
231.00	5800.7
232.00	5448.4
233.00	5124.0
234.00	4832.9
235.00	4559.6
236.00	4311.4
237.00	4077.5
238.00	3860.9
239.00	3650.8
240.00	3446.7
241.00	3264.3
242.00	3087.1
243.00	2926.3
244.00	2785.6
245.00	2661.9
246.00	2556.7
247.00	2473.1
248.00	2422.0
249.00	2392.5
250.00	2381.7
251.00	2392.9
252.00	2425.1
253.00	2464.9
254.00	2523.8
255.00	2589.4
256.00	2680.2
257.00	2772.9
258.00	2885.7
259.00	2998.9
260.00	3135.5
261.00	3293.0
262.00	3461.3
263.00	3653.4
264.00	3861.5
265.00	4079.4
266.00	4331.7
267.00	4597.6
268.00	4868.7
269.00	5150.0
270.00	5437.4
271.00	5738.3
272.00	6039.6
273.00	6332.8
274.00	6620.0
275.00	6884.9
276.00	7139.0
277.00	7384.4
278.00	7592.0
279.00	7778.9
280.00	7969.6
281.00	8134.2
282.00	8271.9
283.00	8407.2
284.00	8531.4
285.00	8637.4
286.00	8733.9
287.00	8809.1
288.00	8878.9
289.00	8936.7
290.00	9001.2
291.00	9042.0
292.00	9072.3
293.00	9080.9
294.00	9091.5
295.00	9067.5
296.00	9028.1
297.00	8948.3
298.00	8864.4
299.00	8736.8
300.00	8576.6
301.00	8393.5
302.00	8182.7
303.00	7930.6
304.00	7649.3
305.00	7344.9
306.00	7028.8
307.00	6696.0
308.00	6350.6
309.00	6021.3
310.00	5693.0
311.00	5365.4
312.00	5071.1
313.00	4795.7
314.00	4558.6
315.00	4334.8
316.00	4142.1
317.00	3973.8
318.00	3827.0
319.00	3692.6
320.00	3581.5
321.00	3495.6
322.00	3419.7
323.00	3370.0
324.00	3310.6
325.00	3270.7
326.00	3248.3
327.00	3226.8
328.00	3215.7
329.00	3212.5
330.00	3218.2
331.00	3222.2
332.00	3237.3
333.00	3264.4
334.00	3298.2
335.00	3338.2
336.00	3378.5
337.00	3417.6
338.00	3464.6
339.00	3517.3
340.00	3574.0
341.00	3626.6
342.00	3683.3
343.00	3752.4
344.00	3819.5
345.00	3878.7
346.00	3960.2
347.00	4028.1
348.00	4102.4
349.00	4182.1
350.00	4251.8
351.00	4329.0
352.00	4419.9
353.00	4505.0
354.00	4582.9
355.00	4665.9
356.00	4747.7
357.00	4802.6
358.00	4866.6
359.00	4914.3
360.00	4984.2
361.00	5041.1
362.00	5085.4
363.00	5112.6
364.00	5114.9
365.00	5131.2
366.00	5139.1
367.00	5141.2
368.00	5134.7
369.00	5079.3
370.00	5024.4
371.00	4981.4
372.00	4899.9
373.00	4822.0
374.00	4720.2
375.00	4623.6
376.00	4496.8
377.00	4352.4
378.00	4204.6
379.00	4059.6
380.00	3907.2
381.00	3743.1
382.00	3588.6
383.00	3419.6
384.00	3234.0
385.00	3054.8
386.00	2882.2
387.00	2685.0
388.00	2532.7
389.00	2366.3
390.00	2194.1
391.00	2031.6
392.00	1892.1
393.00	1766.9
394.00	1645.1
395.00	1517.1
396.00	1412.1
397.00	1314.2
398.00	1214.7
399.00	1124.5
400.00	1069.2
401.00	1004.9
402.00	949.84
403.00	898.87
404.00	853.25
405.00	828.15
406.00	795.35
407.00	777.55
408.00	766.96
409.00	767.04
410.00	758.68
411.00	749.46
412.00	763.86
413.00	763.13
414.00	757.78
415.00	771.75
416.00	781.94
417.00	805.99
418.00	825.12
419.00	840.39
420.00	862.84
421.00	894.31
422.00	923.39
423.00	937.47
424.00	963.15
425.00	997.43
426.00	1043.1
427.00	1082.4
428.00	1109.3
429.00	1135.2
430.00	1197.7
431.00	1222.2
432.00	1272.6
433.00	1326.1
434.00	1373.8
435.00	1410.1
436.00	1468.1
437.00	1518.5
438.00	1575.3
439.00	1646.8
440.00	1685.8
441.00	1750.3
442.00	1812.5
443.00	1873.9
444.00	1935.0
445.00	2014.7
446.00	2081.9
447.00	2149.1
448.00	2220.0
449.00	2287.6
450.00	2373.0
451.00	2455.1
452.00	2529.7
453.00	2614.3
454.00	2713.5
455.00	2793.8
456.00	2885.2
457.00	2972.3
458.00	3074.4
459.00	3162.4
460.00	3268.7
461.00	3369.7
462.00	3482.5
463.00	3615.6
464.00	3711.7
465.00	3821.3
466.00	3923.2
467.00	4064.6
468.00	4188.3
469.00	4301.3
470.00	4459.5
471.00	4598.1
472.00	4715.4
473.00	4882.3
474.00	5010.2
475.00	5151.6
476.00	5317.5
477.00	5485.0
478.00	5624.0
479.00	5787.3
480.00	5978.0
481.00	6128.4
482.00	6298.5
483.00	6497.6
484.00	6679.1
485.00	6915.6
486.00	7048.7
487.00	7187.5
488.00	7419.7
489.00	7639.0
490.00	7811.3
491.00	8047.0
492.00	8280.1
493.00	8488.0
494.00	8697.8
495.00	8940.6
496.00	9190.5
497.00	9426.3
498.00	9689.9
499.00	9958.2
500.00	10194
501.00	10473
502.00	10750
503.00	10979
504.00	11299
505.00	11611
506.00	11883
507.00	12154
508.00	12512
509.00	12827
510.00	13121
511.00	13508
512.00	13851
513.00	14151
514.00	14516
515.00	14910
516.00	15267
517.00	15688
518.00	16057
519.00	16495
520.00	16853
521.00	17251
522.00	17688
523.00	18093
524.00	18412
525.00	18919
526.00	19379
527.00	19783
528.00	20229
529.00	20624
530.00	21086
531.00	21491
532.00	21958
533.00	22385
534.00	22769
535.00	23251
536.00	23627
537.00	24130
538.00	24639
539.00	24997
540.00	25390
541.00	25908
542.00	26371
543.00	26813
544.00	27326
545.00	27713
546.00	28216
547.00	28787
548.00	29334
549.00	29903
550.00	30482
551.00	31188
552.00	31839
553.00	32520
554.00	33222
555.00	34047
556.00	34873
557.00	35724
558.00	36527
559.00	37394
560.00	38235
561.00	39082
562.00	39957
563.00	40845
564.00	41703
565.00	42466
566.00	43132
567.00	44126
568.00	44788
569.00	45321
570.00	45806
571.00	46078
572.00	46195
573.00	46302
574.00	46158
575.00	45883
576.00	45372
577.00	44619
578.00	43869
579.00	42934
580.00	41642
581.00	40188
582.00	38941
583.00	37482
584.00	35466
585.00	33740
586.00	32158
587.00	30088
588.00	28261
589.00	26586
590.00	24663
591.00	22877
592.00	21049
593.00	19399
594.00	17914
595.00	16439
596.00	15151
597.00	13749
598.00	12479
599.00	11356
600.00	10322
601.00	9363.3
602.00	8492.7
603.00	7646.4
604.00	6968.9
605.00	6281.8
606.00	5658.6
607.00	5114.6
608.00	4603.6
609.00	4170.4
610.00	3721.7
611.00	3381.1
612.00	3037.2
613.00	2728.7
614.00	2463.3
615.00	2221.5
616.00	2005.6
617.00	1815.7
618.00	1635.1
619.00	1478.1
620.00	1319.6
621.00	1204.3
622.00	1090.3
623.00	982.00
624.00	894.83
625.00	805.05
626.00	741.65
627.00	667.25
628.00	613.46
629.00	544.13
630.00	497.78
631.00	460.44
632.00	421.25
633.00	392.25
634.00	369.06
635.00	346.38
636.00	312.83
637.00	278.76
638.00	260.04
639.00	242.60
640.00	218.72
641.00	223.56
642.00	178.71
643.00	157.87
644.00	164.18
645.00	155.11
646.00	126.74
647.00	132.58
648.00	87.322
649.00	129.71
650.00	95.025
651.00	75.125
652.00	92.093
653.00	90.061
654.00	68.835
655.00	61.859
656.00	59.955
657.00	85.439
658.00	81.780
659.00	64.042
660.00	78.763
661.00	45.982
662.00	37.830
663.00	77.607
664.00	47.245
665.00	45.833
666.00	81.823
667.00	79.961
668.00	38.429
669.00	72.900
670.00	52.937
671.00	44.485
672.00	26.254
673.00	31.732
674.00	52.937
675.00	23.473
676.00	55.911
677.00	44.378
678.00	39.970
679.00	29.250
680.00	37.659
681.00	56.424
682.00	42.923
683.00	36.953
684.00	34.856
685.00	32.866
686.00	53.728
687.00	42.623
688.00	48.336
689.00	52.744
690.00	32.695
691.00	34.578
692.00	33.979
693.00	34.300
694.00	47.994
695.00	37.702
696.00	32.267
697.00	37.338
698.00	32.502
699.00	27.517
700.00	26.147
