Wavelength (nm)	T13 abs e
350.00	8761.2
351.00	8660.2
352.00	8604.9
353.00	8554.6
354.00	8505.8
355.00	8472.4
356.00	8469.1
357.00	8445.8
358.00	8464.4
359.00	8411.2
360.00	8370.6
361.00	8302.4
362.00	8212.1
363.00	8341.3
364.00	8615.9
365.00	8876.1
366.00	8904.0
367.00	8804.7
368.00	8853.6
369.00	9145.9
370.00	9370.2
371.00	9556.3
372.00	9713.8
373.00	9815.8
374.00	9968.5
375.00	10132
376.00	10314
377.00	10468
378.00	10613
379.00	10790
380.00	10992
381.00	11222
382.00	11524
383.00	11791
384.00	12043
385.00	12316
386.00	12580
387.00	12834
388.00	13041
389.00	13308
390.00	13665
391.00	14145
392.00	14819
393.00	15653
394.00	16921
395.00	18520
396.00	20573
397.00	23118
398.00	26179
399.00	29285
400.00	32673
401.00	36316
402.00	39533
403.00	42349
404.00	44462
405.00	45812
406.00	46479
407.00	46417
408.00	45800
409.00	44739
410.00	43755
411.00	42954
412.00	42675
413.00	43534
414.00	45705
415.00	49566
416.00	55190
417.00	63246
418.00	74868
419.00	91212
420.00	1.1296e+05
421.00	1.3874e+05
422.00	1.6274e+05
423.00	1.7951e+05
424.00	1.8929e+05
425.00	1.9100e+05
426.00	1.8643e+05
427.00	1.7915e+05
428.00	1.7158e+05
429.00	1.6364e+05
430.00	1.5576e+05
431.00	1.4770e+05
432.00	1.3737e+05
433.00	1.2424e+05
434.00	1.1057e+05
435.00	96415
436.00	81427
437.00	67544
438.00	54484
439.00	43198
440.00	33772
441.00	25641
442.00	19814
443.00	15312
444.00	11868
445.00	9387.8
446.00	7512.0
447.00	6240.1
448.00	5316.8
449.00	4607.0
450.00	4120.3
451.00	3769.7
452.00	3465.0
453.00	3183.8
454.00	3027.2
455.00	2833.7
456.00	2670.3
457.00	2529.2
458.00	2429.0
459.00	2310.4
460.00	2225.7
461.00	2120.6
462.00	2046.8
463.00	1914.1
464.00	1825.3
465.00	1739.8
466.00	1663.2
467.00	1618.2
468.00	1528.9
469.00	1443.7
470.00	1436.1
471.00	1359.0
472.00	1316.4
473.00	1249.4
474.00	1182.5
475.00	1216.3
476.00	1173.5
477.00	1148.6
478.00	1146.1
479.00	1131.8
480.00	1155.9
481.00	1178.7
482.00	1199.6
483.00	1225.5
484.00	1247.8
485.00	1293.7
486.00	1256.0
487.00	1342.4
488.00	1471.4
489.00	1438.3
490.00	1448.5
491.00	1499.2
492.00	1529.2
493.00	1548.7
494.00	1583.3
495.00	1634.3
496.00	1642.9
497.00	1656.9
498.00	1731.8
499.00	1751.3
500.00	1785.6
501.00	1813.0
502.00	1818.4
503.00	1866.3
504.00	1931.4
505.00	1994.5
506.00	2062.3
507.00	2142.4
508.00	2201.6
509.00	2286.7
510.00	2385.0
511.00	2477.0
512.00	2619.1
513.00	2761.1
514.00	2884.3
515.00	3040.4
516.00	3172.9
517.00	3314.2
518.00	3479.3
519.00	3593.8
520.00	3691.7
521.00	3853.5
522.00	3934.7
523.00	4107.2
524.00	4270.4
525.00	4406.0
526.00	4489.2
527.00	4597.9
528.00	4694.0
529.00	4690.7
530.00	4678.7
531.00	4651.3
532.00	4579.9
533.00	4538.5
534.00	4472.3
535.00	4386.1
536.00	4324.0
537.00	4277.7
538.00	4237.9
539.00	4159.2
540.00	4136.2
541.00	4097.3
542.00	4038.9
543.00	4073.4
544.00	4060.7
545.00	4091.0
546.00	4147.0
547.00	4222.6
548.00	4327.0
549.00	4484.9
550.00	4643.6
551.00	4834.8
552.00	4999.5
553.00	5158.5
554.00	5307.1
555.00	5446.5
556.00	5544.9
557.00	5697.0
558.00	5918.3
559.00	6189.5
560.00	6504.4
561.00	6937.3
562.00	7468.8
563.00	8065.8
564.00	8593.8
565.00	8982.8
566.00	9272.6
567.00	9396.9
568.00	9363.8
569.00	9221.2
570.00	9030.3
571.00	8753.5
572.00	8428.9
573.00	8077.5
574.00	7640.5
575.00	7257.5
576.00	6875.6
577.00	6409.2
578.00	6022.1
579.00	5677.4
580.00	5245.0
581.00	4746.6
582.00	4421.5
583.00	4129.3
584.00	3729.3
585.00	3448.8
586.00	3331.8
587.00	3200.5
588.00	3131.6
589.00	3106.4
590.00	3090.8
591.00	3101.9
592.00	3174.3
593.00	3303.4
594.00	3540.5
595.00	3850.5
596.00	4268.2
597.00	4760.8
598.00	5320.0
599.00	5867.9
600.00	6370.9
601.00	6803.5
602.00	7119.2
603.00	7258.0
604.00	7303.2
605.00	7265.9
606.00	7240.5
607.00	7423.7
608.00	7867.0
609.00	8850.8
610.00	10498
611.00	13078
612.00	16608
613.00	21153
614.00	25988
615.00	30222
616.00	32771
617.00	33069
618.00	31136
619.00	27575
620.00	22862
621.00	18550
622.00	14060
623.00	10304
624.00	7603.6
625.00	5488.3
626.00	4049.1
627.00	2986.5
628.00	2264.8
629.00	1768.3
630.00	1431.0
631.00	1194.1
632.00	983.60
633.00	836.20
634.00	686.42
635.00	591.71
636.00	506.88
637.00	445.56
638.00	416.71
639.00	405.89
640.00	379.04
641.00	378.54
642.00	365.94
643.00	326.96
644.00	305.85
645.00	351.43
646.00	326.36
647.00	301.75
648.00	289.99
649.00	302.07
650.00	302.05
651.00	283.49
652.00	254.09
653.00	264.06
654.00	292.05
655.00	280.34
656.00	301.91
657.00	309.44
658.00	302.16
659.00	306.31
660.00	318.68
661.00	296.36
662.00	273.40
663.00	290.59
664.00	269.33
665.00	254.63
666.00	266.61
667.00	247.81
668.00	236.53
669.00	217.54
670.00	209.84
671.00	197.42
672.00	174.31
673.00	192.46
674.00	195.85
675.00	182.12
676.00	173.23
677.00	166.69
678.00	162.02
679.00	158.12
680.00	151.70
681.00	145.42
682.00	152.16
683.00	156.05
684.00	126.82
685.00	136.81
686.00	154.48
687.00	146.56
688.00	141.92
689.00	122.98
690.00	105.61
691.00	116.31
692.00	109.74
693.00	100.49
694.00	105.03
695.00	80.691
696.00	99.965
697.00	55.985
698.00	66.605
699.00	67.955
700.00	56.425
