Wavelength (nm)	168, Spec Acta A 2022_265_120393, 1
400.00	
401.00	
402.00	
403.00	
404.00	
405.00	
406.00	
407.00	
408.00	
409.00	
410.00	
411.00	
412.00	
413.00	
414.00	
415.00	
416.00	
417.00	
418.00	
419.00	
420.00	
421.00	
422.00	
423.00	
424.00	
425.00	
426.00	
427.00	
428.00	
429.00	
430.00	
431.00	
432.00	
433.00	
434.00	
435.00	
436.00	
437.00	
438.00	
439.00	
440.00	
441.00	
442.00	
443.00	
444.00	
445.00	
446.00	
447.00	
448.00	
449.00	
450.00	
451.00	
452.00	
453.00	
454.00	
455.00	
456.00	
457.00	
458.00	
459.00	
460.00	
461.00	
462.00	
463.00	
464.00	
465.00	
466.00	
467.00	
468.00	
469.00	
470.00	
471.00	
472.00	
473.00	
474.00	
475.00	
476.00	
477.00	
478.00	
479.00	
480.00	
481.00	
482.00	
483.00	
484.00	
485.00	
486.00	
487.00	
488.00	
489.00	
490.00	
491.00	
492.00	
493.00	
494.00	
495.00	
496.00	
497.00	
498.00	
499.00	
500.00	
501.00	
502.00	
503.00	
504.00	
505.00	
506.00	
507.00	
508.00	
509.00	
510.00	
511.00	
512.00	
513.00	
514.00	
515.00	
516.00	
517.00	
518.00	
519.00	
520.00	
521.00	
522.00	
523.00	
524.00	
525.00	0.0021625
526.00	0.0028413
527.00	0.0035774
528.00	0.0056892
529.00	0.0078010
530.00	0.010091
531.00	0.012544
532.00	0.015033
533.00	0.017926
534.00	0.020818
535.00	0.024521
536.00	0.028454
537.00	0.034569
538.00	0.041411
539.00	0.047814
540.00	0.055547
541.00	0.072178
542.00	0.091516
543.00	0.11416
544.00	0.14461
545.00	0.18095
546.00	0.21963
547.00	0.26832
548.00	0.33278
549.00	0.40511
550.00	0.47568
551.00	0.54626
552.00	0.62291
553.00	0.70128
554.00	0.78404
555.00	0.86158
556.00	0.93130
557.00	0.97148
558.00	0.99273
559.00	1.0000
560.00	0.98975
561.00	0.96555
562.00	0.93452
563.00	0.90026
564.00	0.86051
565.00	0.82053
566.00	0.77516
567.00	0.72938
568.00	0.68899
569.00	0.64913
570.00	0.61302
571.00	0.58011
572.00	0.54876
573.00	0.51854
574.00	0.48830
575.00	0.45766
576.00	0.43398
577.00	0.41357
578.00	0.39065
579.00	0.36706
580.00	0.34553
581.00	0.32929
582.00	0.31304
583.00	0.29966
584.00	0.28750
585.00	0.27533
586.00	0.26529
587.00	0.25546
588.00	0.24563
589.00	0.23580
590.00	0.22701
591.00	0.21897
592.00	0.21094
593.00	0.20294
594.00	0.19678
595.00	0.19063
596.00	0.18447
597.00	0.17832
598.00	0.17261
599.00	0.16738
600.00	0.16215
601.00	0.15693
602.00	0.15170
603.00	0.14665
604.00	0.14189
605.00	0.13712
606.00	0.13235
607.00	0.12759
608.00	0.12282
609.00	0.11803
610.00	0.11301
611.00	0.10800
612.00	0.10298
613.00	0.098000
614.00	0.093229
615.00	0.088459
616.00	0.083688
617.00	0.078918
618.00	0.074217
619.00	0.070082
620.00	0.065947
621.00	0.061812
622.00	0.058372
623.00	0.055933
624.00	0.053494
625.00	0.051720
626.00	0.050902
627.00	0.050084
628.00	0.045031
629.00	0.038898
630.00	0.031506
631.00	0.027061
632.00	0.022943
633.00	0.020675
634.00	0.018871
635.00	0.017183
636.00	0.015912
637.00	0.014641
638.00	0.013396
639.00	0.012462
640.00	0.011528
641.00	0.010593
642.00	0.0098477
643.00	0.0092759
644.00	0.0087041
645.00	0.0081416
646.00	0.0078771
647.00	0.0076126
648.00	0.0073481
649.00	0.0070836
650.00	0.0068191
651.00	
652.00	
653.00	
654.00	
655.00	
656.00	
657.00	
658.00	
659.00	
660.00	
661.00	
662.00	
663.00	
664.00	
665.00	
666.00	
667.00	
668.00	
669.00	
670.00	
671.00	
672.00	
673.00	
674.00	
675.00	
676.00	
677.00	
678.00	
679.00	
680.00	
681.00	
682.00	
683.00	
684.00	
685.00	
686.00	
687.00	
688.00	
689.00	
690.00	
691.00	
692.00	
693.00	
694.00	
695.00	
696.00	
697.00	
698.00	
699.00	
700.00	
701.00	
702.00	
703.00	
704.00	
705.00	
706.00	
707.00	
708.00	
709.00	
710.00	
711.00	
712.00	
713.00	
714.00	
715.00	
716.00	
717.00	
718.00	
719.00	
720.00	
721.00	
722.00	
723.00	
724.00	
725.00	
726.00	
727.00	
728.00	
729.00	
730.00	
731.00	
732.00	
733.00	
734.00	
735.00	
736.00	
737.00	
738.00	
739.00	
740.00	
741.00	
742.00	
743.00	
744.00	
745.00	
746.00	
747.00	
748.00	
749.00	
750.00	
751.00	
752.00	
753.00	
754.00	
755.00	
756.00	
757.00	
758.00	
759.00	
760.00	
761.00	
762.00	
763.00	
764.00	
765.00	
766.00	
767.00	
768.00	
769.00	
770.00	
771.00	
772.00	
773.00	
774.00	
775.00	
776.00	
777.00	
778.00	
779.00	
780.00	
781.00	
782.00	
783.00	
784.00	
785.00	
786.00	
787.00	
788.00	
789.00	
790.00	
791.00	
792.00	
793.00	
794.00	
795.00	
796.00	
797.00	
798.00	
799.00	
800.00	
801.00	
802.00	
803.00	
804.00	
805.00	
806.00	
807.00	
808.00	
809.00	
810.00	
811.00	
812.00	
813.00	
814.00	
815.00	
816.00	
817.00	
818.00	
819.00	
820.00	
821.00	
822.00	
823.00	
824.00	
825.00	
826.00	
827.00	
828.00	
829.00	
830.00	
831.00	
832.00	
833.00	
834.00	
835.00	
836.00	
837.00	
838.00	
839.00	
840.00	
841.00	
842.00	
843.00	
844.00	
845.00	
846.00	
847.00	
848.00	
849.00	
850.00	
