Wavelength (nm)	Q25 abs e
350.00	12017
351.00	11778
352.00	11632
353.00	11480
354.00	11344
355.00	11159
356.00	11026
357.00	10950
358.00	10814
359.00	10698
360.00	10510
361.00	10490
362.00	10327
363.00	10175
364.00	10069
365.00	9837.2
366.00	9668.2
367.00	9409.9
368.00	9184.7
369.00	9012.4
370.00	8870.0
371.00	8621.6
372.00	8479.2
373.00	8217.5
374.00	8035.3
375.00	7883.0
376.00	7727.3
377.00	7684.3
378.00	7575.0
379.00	7478.9
380.00	7482.2
381.00	7531.9
382.00	7329.8
383.00	7429.2
384.00	7280.2
385.00	7478.9
386.00	7578.3
387.00	7674.3
388.00	7853.2
389.00	8018.8
390.00	8273.8
391.00	8538.8
392.00	8886.6
393.00	9274.1
394.00	9671.6
395.00	10043
396.00	10417
397.00	10824
398.00	11232
399.00	11513
400.00	11874
401.00	12133
402.00	12474
403.00	12722
404.00	13053
405.00	13282
406.00	13623
407.00	13967
408.00	14464
409.00	15070
410.00	15948
411.00	17021
412.00	18462
413.00	20317
414.00	22642
415.00	25414
416.00	28743
417.00	32436
418.00	36381
419.00	40508
420.00	44668
421.00	48504
422.00	51875
423.00	54528
424.00	56380
425.00	57231
426.00	57281
427.00	56582
428.00	55416
429.00	53926
430.00	52438
431.00	51210
432.00	50395
433.00	50229
434.00	50812
435.00	52289
436.00	54810
437.00	58818
438.00	64392
439.00	72368
440.00	83225
441.00	97944
442.00	1.1693e+05
443.00	1.4149e+05
444.00	1.7165e+05
445.00	2.0771e+05
446.00	2.4816e+05
447.00	2.9185e+05
448.00	3.3556e+05
449.00	3.7522e+05
450.00	4.0738e+05
451.00	4.2826e+05
452.00	4.3700e+05
453.00	4.3269e+05
454.00	4.1732e+05
455.00	3.9266e+05
456.00	3.6153e+05
457.00	3.2671e+05
458.00	2.9050e+05
459.00	2.5495e+05
460.00	2.2085e+05
461.00	1.8935e+05
462.00	1.6058e+05
463.00	1.3529e+05
464.00	1.1307e+05
465.00	94036
466.00	77671
467.00	63948
468.00	52399
469.00	42760
470.00	34702
471.00	28286
472.00	22987
473.00	18840
474.00	15431
475.00	12778
476.00	10576
477.00	8850.1
478.00	7445.8
479.00	6296.4
480.00	5379.0
481.00	4620.5
482.00	4021.0
483.00	3520.8
484.00	3143.3
485.00	2792.2
486.00	2533.8
487.00	2321.8
488.00	2192.7
489.00	2043.6
490.00	1940.9
491.00	1834.9
492.00	1805.1
493.00	1762.1
494.00	1725.6
495.00	1725.6
496.00	1709.1
497.00	1719.0
498.00	1729.0
499.00	1679.3
500.00	1722.3
501.00	1695.8
502.00	1695.8
503.00	1722.3
504.00	1745.5
505.00	1725.6
506.00	1729.0
507.00	1738.9
508.00	1782.0
509.00	1775.3
510.00	1798.5
511.00	1772.0
512.00	1755.5
513.00	1745.5
514.00	1725.6
515.00	1732.3
516.00	1722.3
517.00	1715.7
518.00	1695.8
519.00	1646.2
520.00	1642.8
521.00	1619.7
522.00	1682.6
523.00	1719.0
524.00	1699.1
525.00	1709.1
526.00	1831.6
527.00	1914.4
528.00	2000.6
529.00	2149.6
530.00	2292.0
531.00	2374.8
532.00	2437.8
533.00	2510.6
534.00	2557.0
535.00	2682.9
536.00	2729.2
537.00	2792.2
538.00	2878.3
539.00	2884.9
540.00	2921.3
541.00	2881.6
542.00	2838.5
543.00	2914.7
544.00	2884.9
545.00	2888.2
546.00	2898.2
547.00	2894.8
548.00	2855.1
549.00	2891.5
550.00	2904.8
551.00	2951.2
552.00	2931.3
553.00	2921.3
554.00	2888.2
555.00	2911.4
556.00	2898.2
557.00	2888.2
558.00	2861.7
559.00	2848.5
560.00	2785.5
561.00	2812.0
562.00	2785.5
563.00	2805.4
564.00	2788.9
565.00	2855.1
566.00	2908.1
567.00	2981.0
568.00	3096.9
569.00	3222.7
570.00	3404.9
571.00	3693.1
572.00	4014.4
573.00	4501.2
574.00	5070.9
575.00	5846.0
576.00	6720.4
577.00	7697.5
578.00	8730.9
579.00	9711.3
580.00	10596
581.00	11407
582.00	12199
583.00	13166
584.00	14017
585.00	14895
586.00	15633
587.00	16339
588.00	16889
589.00	17502
590.00	18065
591.00	18760
592.00	19310
593.00	19688
594.00	19903
595.00	19810
596.00	19552
597.00	19088
598.00	18608
599.00	18098
600.00	17525
601.00	16929
602.00	16286
603.00	15455
604.00	14590
605.00	13666
606.00	12884
607.00	12152
608.00	11540
609.00	11013
610.00	10586
611.00	10278
612.00	10112
613.00	10023
614.00	10052
615.00	10158
616.00	10443
617.00	10639
618.00	10960
619.00	11374
620.00	11950
621.00	12805
622.00	14004
623.00	15600
624.00	17796
625.00	20704
626.00	24487
627.00	29329
628.00	35516
629.00	43605
630.00	53651
631.00	65959
632.00	79542
633.00	93172
634.00	1.0502e+05
635.00	1.1363e+05
636.00	1.1905e+05
637.00	1.2176e+05
638.00	1.2324e+05
639.00	1.2458e+05
640.00	1.2663e+05
641.00	1.2949e+05
642.00	1.3248e+05
643.00	1.3444e+05
644.00	1.3429e+05
645.00	1.3077e+05
646.00	1.2409e+05
647.00	1.1428e+05
648.00	1.0265e+05
649.00	89992
650.00	77402
651.00	65598
652.00	54790
653.00	45330
654.00	37222
655.00	30432
656.00	24722
657.00	20082
658.00	16309
659.00	13262
660.00	10844
661.00	8913.1
662.00	7343.1
663.00	6183.8
664.00	5196.8
665.00	4458.2
666.00	3871.9
667.00	3348.6
668.00	2904.8
669.00	2566.9
670.00	2278.8
671.00	2027.1
672.00	1861.4
673.00	1666.0
674.00	1536.9
675.00	1454.0
676.00	1341.4
677.00	1232.1
678.00	1142.7
679.00	1109.6
680.00	1040.0
681.00	996.97
682.00	910.85
683.00	934.03
684.00	837.98
685.00	801.55
686.00	804.86
687.00	775.05
688.00	741.93
689.00	738.62
690.00	682.31
691.00	731.99
692.00	705.49
693.00	702.18
694.00	679.00
695.00	652.50
696.00	645.87
697.00	675.68
698.00	632.63
699.00	632.63
700.00	698.87
701.00	642.56
702.00	606.13
703.00	602.82
704.00	599.50
705.00	563.07
706.00	569.69
707.00	559.76
708.00	573.01
709.00	543.20
710.00	536.57
711.00	539.88
712.00	563.07
713.00	563.07
714.00	529.95
715.00	536.57
716.00	523.32
717.00	483.58
718.00	546.51
719.00	476.95
720.00	490.20
721.00	493.51
722.00	423.96
723.00	483.58
724.00	437.21
725.00	447.14
726.00	437.21
727.00	387.52
728.00	410.71
729.00	404.09
730.00	407.40
731.00	357.72
732.00	417.33
733.00	380.90
734.00	400.77
735.00	337.84
736.00	298.10
737.00	308.03
738.00	314.66
739.00	351.09
740.00	321.28
741.00	321.28
742.00	308.03
743.00	304.72
744.00	321.28
745.00	308.03
746.00	271.60
747.00	245.10
748.00	291.47
749.00	268.29
750.00	274.91
751.00	264.97
752.00	304.72
753.00	228.54
754.00	264.97
755.00	258.35
756.00	248.41
757.00	215.29
758.00	228.54
759.00	208.67
760.00	182.17
761.00	215.29
762.00	208.67
763.00	215.29
764.00	211.98
765.00	182.17
766.00	172.23
767.00	175.55
768.00	228.54
769.00	192.11
770.00	152.36
771.00	192.11
772.00	202.04
773.00	162.30
774.00	178.86
775.00	165.61
776.00	135.80
777.00	202.04
778.00	158.98
779.00	202.04
780.00	172.23
781.00	158.98
782.00	102.68
783.00	149.05
784.00	142.42
785.00	135.80
786.00	132.49
787.00	158.98
788.00	122.55
789.00	135.80
790.00	145.74
791.00	132.49
792.00	89.429
793.00	119.24
794.00	92.741
795.00	92.741
796.00	79.492
797.00	72.868
798.00	66.244
799.00	79.492
800.00	56.307
