Wavelength (nm)	T15 abs e
350.00	9548.0
351.00	9482.0
352.00	9403.2
353.00	9329.6
354.00	9356.5
355.00	9285.7
356.00	9279.3
357.00	9307.5
358.00	9373.4
359.00	9325.6
360.00	9462.7
361.00	9584.6
362.00	9900.7
363.00	10257
364.00	10582
365.00	10734
366.00	10539
367.00	10482
368.00	10669
369.00	10971
370.00	11414
371.00	11705
372.00	11895
373.00	12167
374.00	12430
375.00	12624
376.00	12925
377.00	13131
378.00	13381
379.00	13690
380.00	13988
381.00	14427
382.00	14554
383.00	14860
384.00	15259
385.00	15655
386.00	16076
387.00	16578
388.00	17169
389.00	17900
390.00	19079
391.00	20692
392.00	22480
393.00	24276
394.00	26744
395.00	29438
396.00	32324
397.00	35101
398.00	37491
399.00	39238
400.00	40666
401.00	41563
402.00	41826
403.00	41594
404.00	40994
405.00	40361
406.00	39896
407.00	40023
408.00	40706
409.00	42308
410.00	45027
411.00	49272
412.00	55631
413.00	63649
414.00	73922
415.00	87225
416.00	1.0331e+05
417.00	1.2189e+05
418.00	1.4239e+05
419.00	1.6298e+05
420.00	1.8248e+05
421.00	1.9832e+05
422.00	2.0752e+05
423.00	2.0900e+05
424.00	2.0333e+05
425.00	1.9091e+05
426.00	1.7350e+05
427.00	1.5224e+05
428.00	1.3068e+05
429.00	1.0891e+05
430.00	88795
431.00	72100
432.00	57594
433.00	44484
434.00	34051
435.00	26481
436.00	20167
437.00	15330
438.00	11667
439.00	9023.1
440.00	7122.8
441.00	5660.8
442.00	4650.1
443.00	3983.6
444.00	3422.2
445.00	3031.7
446.00	2732.4
447.00	2473.0
448.00	2347.9
449.00	2220.8
450.00	2077.3
451.00	2013.7
452.00	1974.3
453.00	1903.1
454.00	1883.4
455.00	1848.4
456.00	1745.5
457.00	1697.2
458.00	1709.3
459.00	1632.4
460.00	1601.9
461.00	1583.0
462.00	1509.8
463.00	1585.0
464.00	1623.6
465.00	1545.6
466.00	1460.7
467.00	1453.1
468.00	1455.5
469.00	1432.1
470.00	1445.8
471.00	1486.4
472.00	1396.8
473.00	1424.1
474.00	1481.6
475.00	1479.6
476.00	1473.2
477.00	1430.5
478.00	1465.1
479.00	1488.1
480.00	1496.9
481.00	1447.8
482.00	1426.9
483.00	1467.9
484.00	1456.7
485.00	1531.1
486.00	1433.8
487.00	1283.3
488.00	1499.3
489.00	1418.9
490.00	1361.8
491.00	1356.1
492.00	1334.8
493.00	1297.4
494.00	1373.0
495.00	1376.6
496.00	1407.2
497.00	1307.9
498.00	1398.8
499.00	1453.1
500.00	1540.7
501.00	1611.9
502.00	1599.9
503.00	1681.1
504.00	1728.2
505.00	1860.5
506.00	1959.8
507.00	2016.5
508.00	2087.7
509.00	2259.9
510.00	2319.0
511.00	2403.4
512.00	2437.2
513.00	2502.0
514.00	2570.3
515.00	2670.9
516.00	2795.2
517.00	2815.7
518.00	2857.9
519.00	2921.5
520.00	2996.3
521.00	3022.4
522.00	3002.3
523.00	2944.8
524.00	2867.6
525.00	2797.2
526.00	2751.3
527.00	2648.4
528.00	2578.4
529.00	2489.1
530.00	2499.2
531.00	2562.3
532.00	2533.7
533.00	2624.2
534.00	2645.6
535.00	2697.4
536.00	2806.8
537.00	2851.9
538.00	2861.9
539.00	2934.7
540.00	3007.1
541.00	3027.6
542.00	3084.3
543.00	3170.0
544.00	3153.1
545.00	3158.8
546.00	3143.9
547.00	3199.8
548.00	3208.6
549.00	3223.5
550.00	3293.5
551.00	3407.3
552.00	3683.6
553.00	3846.1
554.00	4151.4
555.00	4564.4
556.00	4958.2
557.00	5417.5
558.00	5702.2
559.00	5952.4
560.00	6081.1
561.00	6231.5
562.00	6232.7
563.00	6226.3
564.00	6199.3
565.00	6082.7
566.00	5893.7
567.00	5694.6
568.00	5409.0
569.00	5173.3
570.00	4882.1
571.00	4642.8
572.00	4407.2
573.00	4206.9
574.00	4039.6
575.00	3700.1
576.00	3471.7
577.00	3435.9
578.00	3234.4
579.00	3164.0
580.00	3184.1
581.00	3423.4
582.00	3397.3
583.00	3406.5
584.00	3486.1
585.00	3544.1
586.00	3628.5
587.00	3765.7
588.00	3756.4
589.00	3736.7
590.00	3832.0
591.00	3937.8
592.00	4192.8
593.00	4518.6
594.00	4671.4
595.00	4917.9
596.00	4948.9
597.00	5045.0
598.00	5267.0
599.00	5602.1
600.00	6209.8
601.00	7264.7
602.00	8964.4
603.00	11645
604.00	15158
605.00	20155
606.00	26158
607.00	32056
608.00	36794
609.00	39189
610.00	38753
611.00	35700
612.00	31053
613.00	25685
614.00	20501
615.00	15978
616.00	12213
617.00	9249.5
618.00	6976.8
619.00	5261.0
620.00	4029.5
621.00	3114.9
622.00	2415.1
623.00	1941.3
624.00	1510.2
625.00	1239.1
626.00	964.00
627.00	810.36
628.00	624.95
629.00	499.47
630.00	377.20
631.00	365.13
632.00	306.82
633.00	222.76
634.00	174.90
635.00	168.06
636.00	130.25
637.00	97.274
638.00	62.686
639.00	67.110
640.00	59.871
641.00	15.227
642.00	23.673
643.00	30.108
644.00	56.251
645.00	164.34
646.00	124.28
647.00	5.9767
648.00	60.675
649.00	59.871
650.00	39.761
651.00	32.924
652.00	4.3683
653.00	34.935
654.00	53.547
655.00	167.25
656.00	62.416
657.00	51.717
658.00	118.85
659.00	69.925
660.00	157.03
661.00	105.79
662.00	139.26
663.00	60.273
664.00	168.29
665.00	46.598
666.00	264.89
667.00	132.17
668.00	44.185
669.00	90.220
670.00	275.94
671.00	51.022
672.00	81.589
673.00	50.218
674.00	56.251
675.00	117.67
676.00	29.304
677.00	68.719
678.00	84.404
679.00	60.675
680.00	25.684
681.00	41.772
682.00	70.327
683.00	75.154
684.00	44.185
685.00	69.523
686.00	51.425
687.00	70.327
688.00	60.273
689.00	49.816
690.00	67.914
691.00	84.807
692.00	81.991
693.00	90.035
694.00	87.622
695.00	83.600
696.00	90.437
697.00	103.71
698.00	137.90
699.00	114.97
700.00	118.99
