Wavelength (nm)	J05 abs e
280.00	4399.5
281.00	4287.5
282.00	4210.2
283.00	4173.0
284.00	4171.7
285.00	4204.6
286.00	4271.0
287.00	4356.9
288.00	4458.7
289.00	4569.7
290.00	4701.4
291.00	4829.3
292.00	4963.6
293.00	5106.8
294.00	5262.8
295.00	5415.9
296.00	5572.9
297.00	5733.7
298.00	5890.8
299.00	6032.0
300.00	6161.0
301.00	6264.6
302.00	6350.9
303.00	6419.8
304.00	6477.5
305.00	6512.2
306.00	6542.9
307.00	6566.0
308.00	6584.8
309.00	6607.5
310.00	6617.7
311.00	6614.3
312.00	6590.2
313.00	6538.0
314.00	6449.7
315.00	6328.2
316.00	6160.4
317.00	5959.4
318.00	5710.5
319.00	5433.3
320.00	5137.2
321.00	4825.9
322.00	4539.1
323.00	4250.7
324.00	3990.2
325.00	3752.3
326.00	3539.0
327.00	3348.2
328.00	3178.9
329.00	3038.2
330.00	2902.6
331.00	2787.0
332.00	2678.8
333.00	2586.2
334.00	2504.5
335.00	2427.4
336.00	2359.5
337.00	2298.9
338.00	2242.1
339.00	2187.8
340.00	2142.1
341.00	2099.0
342.00	2060.5
343.00	2031.6
344.00	1999.2
345.00	1978.9
346.00	1958.1
347.00	1943.9
348.00	1934.3
349.00	1931.5
350.00	1935.1
351.00	1942.9
352.00	1957.0
353.00	1981.8
354.00	2003.2
355.00	2035.8
356.00	2074.1
357.00	2113.1
358.00	2160.7
359.00	2218.3
360.00	2278.1
361.00	2344.9
362.00	2406.3
363.00	2484.5
364.00	2558.0
365.00	2647.5
366.00	2734.2
367.00	2818.4
368.00	2914.3
369.00	3005.1
370.00	3103.1
371.00	3198.9
372.00	3295.7
373.00	3393.0
374.00	3498.7
375.00	3599.3
376.00	3704.4
377.00	3817.7
378.00	3920.8
379.00	4015.3
380.00	4112.0
381.00	4226.3
382.00	4342.0
383.00	4448.3
384.00	4551.4
385.00	4666.7
386.00	4774.6
387.00	4880.3
388.00	4991.4
389.00	5086.1
390.00	5184.2
391.00	5295.1
392.00	5388.9
393.00	5474.2
394.00	5562.1
395.00	5655.4
396.00	5739.7
397.00	5819.3
398.00	5892.0
399.00	5961.0
400.00	6030.1
401.00	6094.9
402.00	6159.1
403.00	6227.1
404.00	6277.8
405.00	6322.7
406.00	6380.4
407.00	6439.0
408.00	6478.1
409.00	6516.1
410.00	6576.8
411.00	6613.5
412.00	6658.3
413.00	6694.9
414.00	6742.2
415.00	6774.4
416.00	6812.1
417.00	6847.9
418.00	6881.8
419.00	6930.9
420.00	6962.8
421.00	6999.7
422.00	7036.5
423.00	7070.4
424.00	7118.1
425.00	7148.8
426.00	7197.2
427.00	7246.0
428.00	7290.1
429.00	7327.3
430.00	7389.6
431.00	7453.1
432.00	7503.6
433.00	7581.3
434.00	7666.0
435.00	7744.2
436.00	7837.4
437.00	7937.6
438.00	8048.7
439.00	8151.6
440.00	8275.4
441.00	8409.8
442.00	8546.9
443.00	8681.4
444.00	8846.4
445.00	8998.6
446.00	9152.7
447.00	9332.7
448.00	9490.5
449.00	9678.6
450.00	9867.8
451.00	10039
452.00	10224
453.00	10426
454.00	10608
455.00	10789
456.00	10995
457.00	11206
458.00	11426
459.00	11586
460.00	11796
461.00	12006
462.00	12225
463.00	12437
464.00	12624
465.00	12845
466.00	13038
467.00	13225
468.00	13455
469.00	13663
470.00	13835
471.00	14017
472.00	14218
473.00	14386
474.00	14537
475.00	14619
476.00	14823
477.00	14960
478.00	15053
479.00	15130
480.00	15250
481.00	15318
482.00	15326
483.00	15379
484.00	15338
485.00	15352
486.00	15400
487.00	15395
488.00	15315
489.00	15239
490.00	15171
491.00	15103
492.00	15055
493.00	14994
494.00	14903
495.00	14784
496.00	14698
497.00	14641
498.00	14487
499.00	14394
500.00	14363
501.00	14242
502.00	14150
503.00	14040
504.00	13903
505.00	13783
506.00	13626
507.00	13499
508.00	13336
509.00	13172
510.00	12943
511.00	12700
512.00	12473
513.00	12195
514.00	11964
515.00	11606
516.00	11313
517.00	10936
518.00	10613
519.00	10169
520.00	9805.1
521.00	9389.3
522.00	8984.5
523.00	8569.3
524.00	8107.1
525.00	7653.9
526.00	7216.7
527.00	6777.9
528.00	6353.8
529.00	5923.8
530.00	5540.3
531.00	5142.5
532.00	4737.9
533.00	4373.0
534.00	4018.8
535.00	3697.7
536.00	3393.4
537.00	3088.6
538.00	2820.9
539.00	2571.7
540.00	2331.7
541.00	2115.3
542.00	1912.4
543.00	1735.4
544.00	1562.7
545.00	1420.1
546.00	1274.8
547.00	1153.7
548.00	1037.9
549.00	937.03
550.00	845.70
551.00	757.57
552.00	677.82
553.00	608.75
554.00	540.46
555.00	490.67
556.00	448.56
557.00	401.30
558.00	366.93
559.00	324.90
560.00	286.40
561.00	260.65
562.00	233.74
563.00	213.86
564.00	186.58
565.00	174.27
566.00	151.89
567.00	134.82
568.00	118.26
569.00	100.45
570.00	93.014
571.00	83.368
572.00	72.459
573.00	67.466
574.00	57.382
575.00	49.805
576.00	45.337
577.00	38.906
578.00	34.875
579.00	27.385
580.00	25.559
581.00	23.480
582.00	19.205
583.00	20.595
584.00	15.019
585.00	10.404
586.00	10.861
587.00	10.191
588.00	12.124
589.00	9.6854
590.00	9.0929
591.00	10.443
592.00	11.502
593.00	7.7037
594.00	9.8409
595.00	11.317
596.00	10.725
597.00	11.580
598.00	6.4506
599.00	12.600
600.00	16.369
601.00	16.458
602.00	14.672
603.00	13.421
604.00	14.219
605.00	13.055
606.00	17.739
607.00	16.400
608.00	13.876
609.00	18.609
610.00	12.947
611.00	17.553
612.00	19.265
613.00	21.559
614.00	17.199
615.00	15.268
616.00	20.457
617.00	21.488
618.00	18.275
619.00	25.066
620.00	23.203
621.00	26.964
622.00	25.091
623.00	24.044
624.00	26.814
625.00	26.660
626.00	28.799
627.00	33.347
628.00	32.999
629.00	36.391
630.00	32.060
631.00	31.780
632.00	37.776
633.00	24.956
634.00	25.187
635.00	25.752
636.00	28.823
637.00	25.025
638.00	23.857
639.00	23.733
640.00	31.844
641.00	29.563
642.00	31.556
643.00	38.300
644.00	29.286
645.00	29.240
646.00	18.274
647.00	34.013
648.00	28.934
649.00	18.940
650.00	28.461
