Wavelength (nm)	J16 abs e
280.00	14542
281.00	14094
282.00	13611
283.00	13125
284.00	12664
285.00	12237
286.00	11841
287.00	11511
288.00	11210
289.00	10968
290.00	10775
291.00	10637
292.00	10541
293.00	10479
294.00	10454
295.00	10459
296.00	10488
297.00	10547
298.00	10613
299.00	10699
300.00	10788
301.00	10877
302.00	10968
303.00	11067
304.00	11176
305.00	11282
306.00	11385
307.00	11480
308.00	11562
309.00	11642
310.00	11722
311.00	11761
312.00	11779
313.00	11784
314.00	11763
315.00	11729
316.00	11653
317.00	11577
318.00	11501
319.00	11438
320.00	11370
321.00	11346
322.00	11328
323.00	11331
324.00	11388
325.00	11462
326.00	11580
327.00	11720
328.00	11897
329.00	12086
330.00	12305
331.00	12545
332.00	12817
333.00	13106
334.00	13386
335.00	13688
336.00	13984
337.00	14281
338.00	14595
339.00	14891
340.00	15183
341.00	15456
342.00	15734
343.00	15977
344.00	16215
345.00	16438
346.00	16659
347.00	16855
348.00	17025
349.00	17187
350.00	17325
351.00	17423
352.00	17527
353.00	17589
354.00	17604
355.00	17600
356.00	17560
357.00	17487
358.00	17406
359.00	17302
360.00	17153
361.00	16990
362.00	16793
363.00	16596
364.00	16383
365.00	16157
366.00	15957
367.00	15687
368.00	15474
369.00	15179
370.00	14970
371.00	14717
372.00	14492
373.00	14265
374.00	14064
375.00	13828
376.00	13640
377.00	13439
378.00	13258
379.00	13106
380.00	12966
381.00	12832
382.00	12703
383.00	12572
384.00	12481
385.00	12378
386.00	12289
387.00	12204
388.00	12110
389.00	12033
390.00	11954
391.00	11889
392.00	11811
393.00	11729
394.00	11660
395.00	11570
396.00	11488
397.00	11412
398.00	11354
399.00	11267
400.00	11197
401.00	11109
402.00	11014
403.00	10928
404.00	10852
405.00	10764
406.00	10711
407.00	10618
408.00	10529
409.00	10457
410.00	10388
411.00	10318
412.00	10251
413.00	10186
414.00	10136
415.00	10058
416.00	9996.0
417.00	9950.0
418.00	9911.3
419.00	9862.3
420.00	9824.4
421.00	9779.1
422.00	9763.1
423.00	9758.8
424.00	9759.3
425.00	9771.7
426.00	9773.9
427.00	9777.1
428.00	9791.3
429.00	9841.3
430.00	9893.4
431.00	9952.5
432.00	10025
433.00	10091
434.00	10158
435.00	10241
436.00	10330
437.00	10440
438.00	10555
439.00	10666
440.00	10781
441.00	10913
442.00	11015
443.00	11174
444.00	11325
445.00	11486
446.00	11638
447.00	11787
448.00	11980
449.00	12176
450.00	12393
451.00	12607
452.00	12846
453.00	13099
454.00	13354
455.00	13638
456.00	13958
457.00	14288
458.00	14636
459.00	14964
460.00	15323
461.00	15737
462.00	16167
463.00	16626
464.00	17108
465.00	17568
466.00	17985
467.00	18459
468.00	18972
469.00	19478
470.00	20048
471.00	20631
472.00	21164
473.00	21687
474.00	22292
475.00	22830
476.00	23448
477.00	23984
478.00	24538
479.00	25119
480.00	25710
481.00	26277
482.00	26866
483.00	27491
484.00	28036
485.00	28808
486.00	29293
487.00	29734
488.00	30341
489.00	31087
490.00	31667
491.00	32338
492.00	32945
493.00	33542
494.00	34115
495.00	34774
496.00	35460
497.00	36097
498.00	36650
499.00	37266
500.00	37839
501.00	38541
502.00	39017
503.00	39515
504.00	39991
505.00	40302
506.00	40675
507.00	41016
508.00	41399
509.00	41608
510.00	41657
511.00	41784
512.00	41739
513.00	42000
514.00	41947
515.00	41732
516.00	41672
517.00	41278
518.00	41029
519.00	40842
520.00	40564
521.00	40265
522.00	39862
523.00	39388
524.00	38969
525.00	38612
526.00	38179
527.00	37855
528.00	37522
529.00	37103
530.00	36709
531.00	36233
532.00	35805
533.00	35430
534.00	35048
535.00	34663
536.00	34206
537.00	33725
538.00	33301
539.00	32881
540.00	32418
541.00	31965
542.00	31391
543.00	30848
544.00	30238
545.00	29644
546.00	29086
547.00	28410
548.00	27767
549.00	27059
550.00	26277
551.00	25561
552.00	24770
553.00	23967
554.00	23173
555.00	22294
556.00	21461
557.00	20589
558.00	19754
559.00	18907
560.00	18034
561.00	17186
562.00	16338
563.00	15493
564.00	14688
565.00	13900
566.00	13116
567.00	12303
568.00	11577
569.00	10850
570.00	10194
571.00	9550.4
572.00	8965.3
573.00	8357.1
574.00	7766.7
575.00	7259.7
576.00	6756.1
577.00	6245.0
578.00	5819.6
579.00	5408.8
580.00	4979.2
581.00	4587.3
582.00	4277.0
583.00	3988.6
584.00	3626.9
585.00	3336.5
586.00	3093.5
587.00	2823.9
588.00	2593.1
589.00	2400.8
590.00	2196.6
591.00	2004.0
592.00	1825.2
593.00	1660.0
594.00	1524.0
595.00	1395.6
596.00	1281.3
597.00	1167.2
598.00	1057.8
599.00	963.34
600.00	873.64
601.00	799.02
602.00	732.75
603.00	665.87
604.00	608.03
605.00	550.65
606.00	498.02
607.00	449.05
608.00	420.34
609.00	379.43
610.00	348.78
611.00	315.71
612.00	291.92
613.00	256.59
614.00	236.57
615.00	222.23
616.00	207.17
617.00	181.83
618.00	166.25
619.00	154.65
620.00	139.11
621.00	132.12
622.00	120.15
623.00	116.71
624.00	105.88
625.00	94.865
626.00	96.607
627.00	85.772
628.00	80.548
629.00	80.140
630.00	75.006
631.00	68.469
632.00	81.384
633.00	84.958
634.00	94.209
635.00	93.169
636.00	89.029
637.00	76.160
638.00	69.329
639.00	67.225
640.00	60.915
641.00	45.760
642.00	36.057
643.00	30.606
644.00	26.399
645.00	31.963
646.00	31.941
647.00	27.417
648.00	32.642
649.00	15.090
650.00	19.591
651.00	28.616
652.00	25.540
653.00	28.344
654.00	31.081
655.00	29.181
656.00	19.975
657.00	31.194
658.00	35.356
659.00	20.179
660.00	16.334
661.00	17.601
662.00	12.150
663.00	23.165
664.00	29.204
665.00	28.865
666.00	33.230
667.00	10.250
668.00	14.999
669.00	17.895
670.00	21.129
671.00	26.851
672.00	18.505
673.00	18.505
674.00	18.799
675.00	11.788
676.00	5.9068
677.00	22.056
678.00	22.644
679.00	16.922
680.00	24.160
681.00	11.584
682.00	19.478
683.00	20.880
684.00	27.259
685.00	17.148
686.00	20.450
687.00	15.474
688.00	17.759
689.00	25.291
690.00	23.436
691.00	17.646
692.00	10.295
693.00	21.853
694.00	17.962
695.00	18.799
696.00	18.596
697.00	16.832
698.00	19.817
699.00	18.053
700.00	17.736
