Wavelength (nm)	Q26 abs e
350.00	10069
351.00	10270
352.00	10440
353.00	10705
354.00	10921
355.00	11145
356.00	11341
357.00	11470
358.00	11630
359.00	11820
360.00	11946
361.00	12186
362.00	12343
363.00	12572
364.00	12799
365.00	13118
366.00	13420
367.00	13842
368.00	14223
369.00	14723
370.00	15246
371.00	15710
372.00	16227
373.00	16766
374.00	17289
375.00	17804
376.00	18257
377.00	18767
378.00	19282
379.00	19810
380.00	20364
381.00	21085
382.00	21835
383.00	22729
384.00	23687
385.00	25255
386.00	26682
387.00	28254
388.00	30039
389.00	31991
390.00	34291
391.00	36821
392.00	39646
393.00	42704
394.00	45993
395.00	49282
396.00	52618
397.00	55662
398.00	58310
399.00	60425
400.00	61976
401.00	62898
402.00	63377
403.00	63454
404.00	63400
405.00	63348
406.00	63691
407.00	64500
408.00	65994
409.00	68356
410.00	71686
411.00	75980
412.00	81309
413.00	87764
414.00	95587
415.00	1.0509e+05
416.00	1.1659e+05
417.00	1.3052e+05
418.00	1.4707e+05
419.00	1.6673e+05
420.00	1.8897e+05
421.00	2.1325e+05
422.00	2.3804e+05
423.00	2.6185e+05
424.00	2.8173e+05
425.00	2.9551e+05
426.00	3.0200e+05
427.00	2.9937e+05
428.00	2.8856e+05
429.00	2.7013e+05
430.00	2.4657e+05
431.00	2.1936e+05
432.00	1.9097e+05
433.00	1.6316e+05
434.00	1.3703e+05
435.00	1.1385e+05
436.00	93655
437.00	76879
438.00	62913
439.00	51551
440.00	42258
441.00	34958
442.00	29050
443.00	24393
444.00	20531
445.00	17456
446.00	14916
447.00	12830
448.00	11112
449.00	9708.1
450.00	8510.3
451.00	7500.6
452.00	6630.0
453.00	5921.7
454.00	5262.3
455.00	4757.4
456.00	4273.2
457.00	3894.6
458.00	3482.4
459.00	3224.9
460.00	2946.7
461.00	2717.4
462.00	2423.8
463.00	2307.9
464.00	2099.3
465.00	1931.8
466.00	1787.6
467.00	1656.2
468.00	1548.0
469.00	1468.2
470.00	1365.2
471.00	1267.3
472.00	1195.2
473.00	1117.9
474.00	1076.7
475.00	1032.9
476.00	968.49
477.00	911.82
478.00	886.06
479.00	852.58
480.00	759.85
481.00	762.43
482.00	746.97
483.00	721.22
484.00	672.28
485.00	659.40
486.00	643.94
487.00	623.34
488.00	636.22
489.00	605.31
490.00	595.00
491.00	561.52
492.00	543.49
493.00	540.91
494.00	499.70
495.00	510.00
496.00	484.24
497.00	471.37
498.00	473.94
499.00	427.58
500.00	417.27
501.00	422.43
502.00	427.58
503.00	427.58
504.00	453.34
505.00	473.94
506.00	517.73
507.00	589.85
508.00	638.79
509.00	762.43
510.00	801.06
511.00	896.37
512.00	1012.3
513.00	1081.8
514.00	1123.0
515.00	1190.0
516.00	1257.0
517.00	1287.9
518.00	1378.0
519.00	1408.9
520.00	1463.0
521.00	1517.1
522.00	1568.6
523.00	1604.7
524.00	1666.5
525.00	1720.6
526.00	1797.9
527.00	1808.2
528.00	1862.3
529.00	1903.5
530.00	1952.4
531.00	1988.5
532.00	2065.8
533.00	2112.1
534.00	2192.0
535.00	2274.4
536.00	2359.4
537.00	2444.4
538.00	2583.5
539.00	2622.1
540.00	2712.3
541.00	2848.8
542.00	3005.9
543.00	3168.2
544.00	3353.7
545.00	3562.3
546.00	3801.8
547.00	4147.0
548.00	4592.6
549.00	5120.6
550.00	5777.5
551.00	6591.4
552.00	7608.8
553.00	8845.2
554.00	10177
555.00	11658
556.00	13064
557.00	14316
558.00	15303
559.00	15882
560.00	16294
561.00	16637
562.00	17005
563.00	17356
564.00	17670
565.00	17840
566.00	17806
567.00	17716
568.00	17572
569.00	17415
570.00	17307
571.00	17245
572.00	17090
573.00	16851
574.00	16503
575.00	16091
576.00	15599
577.00	15225
578.00	14983
579.00	14700
580.00	14579
581.00	14633
582.00	14708
583.00	15022
584.00	15408
585.00	15972
586.00	16524
587.00	17155
588.00	17824
589.00	18651
590.00	19566
591.00	20555
592.00	21608
593.00	22736
594.00	23839
595.00	25044
596.00	26348
597.00	27898
598.00	29900
599.00	32583
600.00	36038
601.00	40579
602.00	46140
603.00	53084
604.00	61466
605.00	71722
606.00	84071
607.00	98490
608.00	1.1424e+05
609.00	1.2969e+05
610.00	1.4299e+05
611.00	1.5237e+05
612.00	1.5798e+05
613.00	1.6038e+05
614.00	1.6131e+05
615.00	1.6206e+05
616.00	1.6338e+05
617.00	1.6530e+05
618.00	1.6690e+05
619.00	1.6675e+05
620.00	1.6373e+05
621.00	1.5686e+05
622.00	1.4653e+05
623.00	1.3330e+05
624.00	1.1854e+05
625.00	1.0332e+05
626.00	88789
627.00	75377
628.00	63395
629.00	53192
630.00	44589
631.00	37439
632.00	31602
633.00	26863
634.00	23020
635.00	19973
636.00	17533
637.00	15516
638.00	13837
639.00	12480
640.00	11328
641.00	10303
642.00	9463.4
643.00	8670.0
644.00	8010.6
645.00	7371.9
646.00	6823.2
647.00	6295.2
648.00	5800.6
649.00	5357.6
650.00	4976.4
651.00	4626.1
652.00	4257.7
653.00	3938.4
654.00	3667.9
655.00	3392.3
656.00	3163.0
657.00	2969.9
658.00	2735.5
659.00	2575.8
660.00	2395.5
661.00	2274.4
662.00	2109.6
663.00	2011.7
664.00	1898.3
665.00	1803.0
666.00	1692.3
667.00	1622.7
668.00	1517.1
669.00	1468.2
670.00	1360.0
671.00	1336.8
672.00	1272.4
673.00	1210.6
674.00	1125.6
675.00	1110.2
676.00	1048.3
677.00	996.82
678.00	963.34
679.00	958.19
680.00	875.76
681.00	857.73
682.00	811.37
683.00	801.06
684.00	785.61
685.00	757.28
686.00	734.09
687.00	716.06
688.00	633.64
689.00	661.97
690.00	618.18
691.00	597.58
692.00	584.70
693.00	553.79
694.00	530.61
695.00	561.52
696.00	535.76
697.00	468.79
698.00	510.00
699.00	463.64
700.00	445.61
701.00	430.15
702.00	450.76
703.00	437.88
704.00	409.55
705.00	409.55
706.00	388.94
707.00	378.64
708.00	368.34
709.00	321.97
710.00	314.24
711.00	360.61
712.00	321.97
713.00	314.24
714.00	301.37
715.00	273.03
716.00	293.64
717.00	236.97
718.00	257.58
719.00	260.15
720.00	218.94
721.00	236.97
722.00	224.09
723.00	234.40
724.00	213.79
725.00	211.21
726.00	224.09
727.00	211.21
728.00	198.33
729.00	159.70
730.00	164.85
731.00	149.39
732.00	172.58
733.00	154.55
734.00	149.39
735.00	149.39
736.00	121.06
737.00	144.24
738.00	126.21
739.00	103.03
740.00	118.49
741.00	139.09
742.00	108.18
743.00	90.152
744.00	123.64
745.00	95.303
746.00	90.152
747.00	85.000
748.00	121.06
749.00	110.76
750.00	100.46
751.00	95.303
752.00	51.515
753.00	74.697
754.00	77.273
755.00	97.879
756.00	97.879
757.00	87.576
758.00	77.273
759.00	64.394
760.00	64.394
761.00	77.273
762.00	61.818
763.00	48.940
764.00	46.364
765.00	43.788
766.00	64.394
767.00	30.909
768.00	41.212
769.00	56.667
770.00	28.333
771.00	48.940
772.00	28.333
773.00	33.485
774.00	5.1515
775.00	20.606
776.00	61.818
777.00	48.940
778.00	-6.2341e-06
779.00	43.788
780.00	7.7273
781.00	95.303
782.00	77.273
783.00	66.970
784.00	64.394
785.00	64.394
786.00	10.303
787.00	12.879
788.00	12.879
789.00	33.485
790.00	15.455
791.00	61.818
792.00	7.7273
793.00	28.333
794.00	10.303
795.00	38.637
796.00	43.788
797.00	28.333
798.00	15.455
799.00	36.061
800.00	43.788
