Wavelength (nm)	L09 abs e
200.00	5311.8
201.00	6507.8
202.00	6168.9
203.00	5461.5
204.00	6091.5
205.00	5621.6
206.00	6019.3
207.00	5931.9
208.00	4973.4
209.00	6115.1
210.00	6776.3
211.00	6807.2
212.00	6976.4
213.00	7667.9
214.00	9461.4
215.00	11152
216.00	11871
217.00	11683
218.00	11159
219.00	10506
220.00	9796.6
221.00	9083.6
222.00	8367.2
223.00	7656.0
224.00	6965.6
225.00	6355.1
226.00	5835.4
227.00	5407.2
228.00	5046.7
229.00	4735.8
230.00	4467.2
231.00	4218.8
232.00	3999.3
233.00	3787.7
234.00	3581.8
235.00	3386.7
236.00	3198.9
237.00	3013.0
238.00	2849.2
239.00	2702.3
240.00	2573.0
241.00	2459.5
242.00	2370.2
243.00	2300.5
244.00	2249.2
245.00	2217.8
246.00	2204.9
247.00	2212.9
248.00	2238.2
249.00	2277.8
250.00	2336.8
251.00	2412.3
252.00	2492.2
253.00	2593.6
254.00	2701.3
255.00	2825.9
256.00	2953.7
257.00	3100.0
258.00	3259.8
259.00	3432.0
260.00	3619.6
261.00	3821.3
262.00	4037.5
263.00	4267.1
264.00	4510.7
265.00	4769.4
266.00	5022.2
267.00	5287.2
268.00	5528.5
269.00	5759.5
270.00	5984.5
271.00	6178.9
272.00	6363.1
273.00	6518.9
274.00	6635.0
275.00	6749.6
276.00	6834.3
277.00	6899.2
278.00	6953.3
279.00	6988.8
280.00	7021.2
281.00	7051.8
282.00	7072.0
283.00	7100.8
284.00	7126.7
285.00	7155.2
286.00	7179.2
287.00	7207.9
288.00	7230.4
289.00	7253.9
290.00	7274.1
291.00	7273.7
292.00	7263.2
293.00	7249.3
294.00	7216.9
295.00	7155.1
296.00	7078.8
297.00	6970.7
298.00	6839.8
299.00	6685.2
300.00	6505.8
301.00	6311.7
302.00	6096.1
303.00	5868.6
304.00	5630.6
305.00	5369.2
306.00	5116.1
307.00	4859.1
308.00	4620.8
309.00	4383.8
310.00	4161.4
311.00	3971.1
312.00	3792.0
313.00	3650.4
314.00	3512.1
315.00	3385.9
316.00	3297.4
317.00	3220.6
318.00	3162.5
319.00	3107.9
320.00	3060.6
321.00	3036.3
322.00	3019.9
323.00	3021.0
324.00	3021.5
325.00	3030.9
326.00	3051.5
327.00	3083.8
328.00	3120.9
329.00	3162.2
330.00	3213.9
331.00	3265.7
332.00	3325.4
333.00	3382.4
334.00	3453.5
335.00	3516.3
336.00	3585.6
337.00	3662.3
338.00	3735.9
339.00	3810.2
340.00	3895.7
341.00	3979.8
342.00	4064.8
343.00	4158.0
344.00	4236.8
345.00	4327.5
346.00	4424.4
347.00	4527.1
348.00	4614.3
349.00	4724.5
350.00	4819.1
351.00	4930.4
352.00	5009.1
353.00	5095.9
354.00	5178.8
355.00	5256.8
356.00	5320.7
357.00	5358.1
358.00	5400.5
359.00	5417.0
360.00	5426.8
361.00	5430.8
362.00	5396.6
363.00	5354.6
364.00	5277.5
365.00	5191.5
366.00	5078.7
367.00	4940.7
368.00	4788.1
369.00	4625.2
370.00	4429.3
371.00	4243.2
372.00	4029.9
373.00	3821.8
374.00	3590.1
375.00	3374.8
376.00	3139.9
377.00	2922.0
378.00	2700.7
379.00	2493.5
380.00	2299.0
381.00	2110.1
382.00	1932.2
383.00	1783.4
384.00	1629.5
385.00	1491.5
386.00	1367.4
387.00	1268.2
388.00	1160.3
389.00	1080.5
390.00	1005.6
391.00	937.59
392.00	876.64
393.00	841.53
394.00	799.32
395.00	772.68
396.00	740.71
397.00	733.40
398.00	718.00
399.00	709.05
400.00	701.78
401.00	698.48
402.00	702.21
403.00	703.40
404.00	696.49
405.00	700.82
406.00	716.27
407.00	719.95
408.00	756.29
409.00	763.75
410.00	786.93
411.00	801.34
412.00	827.36
413.00	835.69
414.00	852.91
415.00	883.35
416.00	909.22
417.00	947.31
418.00	964.45
419.00	986.42
420.00	1012.3
421.00	1049.6
422.00	1076.7
423.00	1109.4
424.00	1144.5
425.00	1183.3
426.00	1217.7
427.00	1266.8
428.00	1305.4
429.00	1342.2
430.00	1400.6
431.00	1433.4
432.00	1484.0
433.00	1549.8
434.00	1587.7
435.00	1638.1
436.00	1699.0
437.00	1745.6
438.00	1812.9
439.00	1877.0
440.00	1927.0
441.00	2004.3
442.00	2062.2
443.00	2132.8
444.00	2197.2
445.00	2261.5
446.00	2332.0
447.00	2417.7
448.00	2495.0
449.00	2565.8
450.00	2651.1
451.00	2754.3
452.00	2830.7
453.00	2916.7
454.00	3019.0
455.00	3113.4
456.00	3218.4
457.00	3316.8
458.00	3416.6
459.00	3517.4
460.00	3624.4
461.00	3749.7
462.00	3855.3
463.00	3999.3
464.00	4120.9
465.00	4230.9
466.00	4357.3
467.00	4488.6
468.00	4623.1
469.00	4767.4
470.00	4923.6
471.00	5078.7
472.00	5203.4
473.00	5396.9
474.00	5527.7
475.00	5687.7
476.00	5832.8
477.00	6009.7
478.00	6197.6
479.00	6365.4
480.00	6561.3
481.00	6730.3
482.00	6916.4
483.00	7115.4
484.00	7294.6
485.00	7601.8
486.00	7745.7
487.00	7870.8
488.00	8121.1
489.00	8388.5
490.00	8617.8
491.00	8869.7
492.00	9122.7
493.00	9393.8
494.00	9614.7
495.00	9868.4
496.00	10188
497.00	10442
498.00	10740
499.00	11034
500.00	11276
501.00	11667
502.00	11937
503.00	12282
504.00	12605
505.00	12952
506.00	13277
507.00	13587
508.00	14012
509.00	14355
510.00	14651
511.00	15042
512.00	15418
513.00	15795
514.00	16249
515.00	16625
516.00	16984
517.00	17406
518.00	17816
519.00	18203
520.00	18605
521.00	18963
522.00	19393
523.00	19841
524.00	20229
525.00	20598
526.00	21073
527.00	21511
528.00	21893
529.00	22396
530.00	22806
531.00	23193
532.00	23779
533.00	24244
534.00	24781
535.00	25345
536.00	25868
537.00	26443
538.00	27142
539.00	27795
540.00	28418
541.00	29052
542.00	29760
543.00	30575
544.00	31335
545.00	32083
546.00	32730
547.00	33609
548.00	34460
549.00	35291
550.00	35913
551.00	36762
552.00	37531
553.00	38142
554.00	38748
555.00	39077
556.00	39581
557.00	39897
558.00	40000
559.00	39924
560.00	39998
561.00	39635
562.00	39130
563.00	38508
564.00	37672
565.00	36475
566.00	35251
567.00	34065
568.00	32689
569.00	31040
570.00	29592
571.00	27912
572.00	26320
573.00	24598
574.00	22862
575.00	21278
576.00	19642
577.00	17968
578.00	16593
579.00	15191
580.00	13781
581.00	12478
582.00	11461
583.00	10484
584.00	9287.4
585.00	8393.6
586.00	7667.5
587.00	6816.2
588.00	6146.1
589.00	5577.8
590.00	4978.1
591.00	4468.2
592.00	3974.6
593.00	3564.8
594.00	3215.8
595.00	2877.9
596.00	2613.5
597.00	2336.0
598.00	2079.9
599.00	1864.3
600.00	1686.8
601.00	1505.9
602.00	1356.8
603.00	1218.1
604.00	1112.4
605.00	995.48
606.00	900.03
607.00	811.08
608.00	739.04
609.00	666.71
610.00	603.80
611.00	548.80
612.00	503.29
613.00	451.76
614.00	414.32
615.00	375.30
616.00	343.27
617.00	314.14
618.00	288.54
619.00	266.63
620.00	246.70
621.00	237.85
622.00	218.09
623.00	193.32
624.00	181.59
625.00	163.39
626.00	154.15
627.00	163.59
628.00	143.87
629.00	139.16
630.00	132.76
631.00	119.19
632.00	117.13
633.00	121.90
634.00	122.40
635.00	115.04
636.00	102.29
637.00	106.97
638.00	103.50
639.00	108.62
640.00	93.365
641.00	73.420
642.00	79.635
643.00	50.765
644.00	54.290
645.00	89.933
646.00	63.345
647.00	68.336
648.00	60.598
649.00	57.055
650.00	86.370
651.00	73.494
652.00	43.844
653.00	37.072
654.00	55.032
655.00	54.605
656.00	46.738
657.00	35.643
658.00	46.237
659.00	49.911
660.00	50.802
661.00	53.362
662.00	48.909
663.00	37.387
664.00	52.843
665.00	54.142
666.00	24.826
667.00	33.936
668.00	46.571
669.00	16.736
670.00	33.101
671.00	40.189
672.00	39.929
673.00	34.641
674.00	32.155
675.00	24.251
676.00	40.560
677.00	43.324
678.00	33.880
679.00	25.642
680.00	32.006
681.00	37.294
682.00	25.401
683.00	39.075
684.00	33.917
685.00	42.155
686.00	39.595
687.00	29.427
688.00	29.817
689.00	29.316
690.00	21.690
691.00	25.679
692.00	25.234
693.00	37.164
694.00	37.610
695.00	31.876
696.00	18.907
697.00	26.533
698.00	27.572
699.00	21.319
700.00	15.530
