Wavelength (nm)	D09 abs e
215.00	43375
216.00	43416
217.00	43398
218.00	43372
219.00	43456
220.00	43424
221.00	43418
222.00	43430
223.00	43419
224.00	43358
225.00	43288
226.00	43224
227.00	43071
228.00	42939
229.00	42781
230.00	42580
231.00	42452
232.00	42244
233.00	41993
234.00	41811
235.00	41589
236.00	41319
237.00	41081
238.00	40797
239.00	40578
240.00	40262
241.00	39917
242.00	39565
243.00	39210
244.00	38800
245.00	38360
246.00	37955
247.00	37500
248.00	37018
249.00	36510
250.00	35981
251.00	35445
252.00	34906
253.00	34346
254.00	33781
255.00	33234
256.00	32692
257.00	32211
258.00	31734
259.00	31322
260.00	30937
261.00	30664
262.00	30414
263.00	30241
264.00	30124
265.00	30096
266.00	30062
267.00	30109
268.00	30150
269.00	30262
270.00	30371
271.00	30485
272.00	30656
273.00	30795
274.00	30951
275.00	31134
276.00	31320
277.00	31474
278.00	31624
279.00	31773
280.00	31897
281.00	31968
282.00	32018
283.00	32090
284.00	32123
285.00	32163
286.00	32182
287.00	32185
288.00	32201
289.00	32223
290.00	32266
291.00	32311
292.00	32374
293.00	32460
294.00	32512
295.00	32577
296.00	32625
297.00	32672
298.00	32685
299.00	32710
300.00	32747
301.00	32832
302.00	32955
303.00	33083
304.00	33316
305.00	33594
306.00	33920
307.00	34292
308.00	34684
309.00	35081
310.00	35442
311.00	35777
312.00	36057
313.00	36369
314.00	36605
315.00	36865
316.00	37063
317.00	37407
318.00	37703
319.00	38100
320.00	38501
321.00	38928
322.00	39388
323.00	39774
324.00	40239
325.00	40657
326.00	40924
327.00	41172
328.00	41314
329.00	41440
330.00	41517
331.00	41622
332.00	41619
333.00	41631
334.00	41698
335.00	41754
336.00	41789
337.00	41790
338.00	41841
339.00	41885
340.00	41827
341.00	41910
342.00	41901
343.00	41838
344.00	41836
345.00	41803
346.00	41771
347.00	41736
348.00	41709
349.00	41689
350.00	41653
351.00	41668
352.00	41733
353.00	41802
354.00	41833
355.00	41924
356.00	42050
357.00	42195
358.00	42362
359.00	42500
360.00	42661
361.00	42685
362.00	42754
363.00	42942
364.00	43013
365.00	43019
366.00	43248
367.00	43224
368.00	43198
369.00	43229
370.00	43315
371.00	43425
372.00	43502
373.00	43447
374.00	43438
375.00	43358
376.00	43461
377.00	43422
378.00	43404
379.00	43381
380.00	43307
381.00	43103
382.00	42774
383.00	42730
384.00	42542
385.00	42422
386.00	42065
387.00	41800
388.00	41521
389.00	41107
390.00	40715
391.00	40261
392.00	39748
393.00	39199
394.00	38728
395.00	38253
396.00	37548
397.00	36966
398.00	36329
399.00	35723
400.00	35037
401.00	34265
402.00	33604
403.00	32887
404.00	32091
405.00	31418
406.00	30682
407.00	29925
408.00	29098
409.00	28294
410.00	27600
411.00	26784
412.00	25956
413.00	25187
414.00	24369
415.00	23573
416.00	22787
417.00	22034
418.00	21279
419.00	20520
420.00	19767
421.00	18998
422.00	18303
423.00	17623
424.00	16957
425.00	16264
426.00	15565
427.00	14853
428.00	14280
429.00	13628
430.00	13006
431.00	12458
432.00	11901
433.00	11305
434.00	10754
435.00	10256
436.00	9745.5
437.00	9242.0
438.00	8768.3
439.00	8331.0
440.00	7876.7
441.00	7423.5
442.00	7057.8
443.00	6662.0
444.00	6274.8
445.00	5926.3
446.00	5587.0
447.00	5267.0
448.00	4950.5
449.00	4651.3
450.00	4365.4
451.00	4103.3
452.00	3833.3
453.00	3592.7
454.00	3374.0
455.00	3148.3
456.00	2940.1
457.00	2737.1
458.00	2546.4
459.00	2386.0
460.00	2236.7
461.00	2094.8
462.00	1935.1
463.00	1786.8
464.00	1672.4
465.00	1554.5
466.00	1454.6
467.00	1351.0
468.00	1268.4
469.00	1183.9
470.00	1091.6
471.00	1023.0
472.00	929.54
473.00	874.43
474.00	834.84
475.00	801.31
476.00	732.99
477.00	669.91
478.00	621.87
479.00	591.08
480.00	559.73
481.00	529.64
482.00	486.68
483.00	463.86
484.00	435.75
485.00	374.20
486.00	356.40
487.00	338.64
488.00	347.56
489.00	313.03
490.00	280.63
491.00	257.41
492.00	261.10
493.00	259.55
494.00	241.34
495.00	239.75
496.00	204.21
497.00	215.47
498.00	190.93
499.00	191.59
500.00	192.33
501.00	191.07
502.00	187.46
503.00	174.60
504.00	153.01
505.00	137.34
506.00	152.91
507.00	159.21
508.00	150.29
509.00	126.49
510.00	123.79
511.00	131.75
512.00	130.46
513.00	130.10
514.00	133.12
515.00	129.61
516.00	128.87
517.00	115.98
518.00	117.97
519.00	124.58
520.00	138.77
521.00	121.44
522.00	110.14
523.00	129.25
524.00	115.52
525.00	123.07
526.00	126.61
527.00	129.53
528.00	109.92
529.00	96.771
530.00	98.020
531.00	101.22
532.00	118.50
533.00	99.006
534.00	95.140
535.00	88.979
536.00	82.958
537.00	117.41
538.00	107.02
539.00	95.704
540.00	94.033
541.00	79.696
542.00	69.870
543.00	70.756
544.00	81.146
545.00	88.475
546.00	92.221
547.00	84.650
548.00	70.474
549.00	75.005
550.00	74.360
551.00	81.891
552.00	86.925
553.00	82.999
554.00	73.676
555.00	62.017
556.00	67.857
557.00	82.979
558.00	85.757
559.00	72.709
560.00	75.025
561.00	66.930
562.00	61.917
563.00	63.044
564.00	61.474
565.00	75.347
566.00	70.716
567.00	61.635
568.00	51.487
569.00	57.749
570.00	51.346
571.00	55.473
572.00	62.863
573.00	51.789
574.00	45.788
575.00	50.359
576.00	46.835
577.00	46.271
578.00	56.802
579.00	49.715
580.00	50.903
581.00	36.063
582.00	44.117
583.00	39.727
584.00	46.493
585.00	53.319
586.00	43.513
587.00	40.613
588.00	39.909
589.00	43.110
590.00	46.594
591.00	52.735
592.00	49.433
593.00	47.721
594.00	44.963
595.00	45.063
596.00	48.970
597.00	55.796
598.00	54.467
599.00	47.298
600.00	48.466
