Wavelength (nm)	T06 Chl e6 abs e
300.00	14958
301.00	14912
302.00	14875
303.00	14805
304.00	14697
305.00	14543
306.00	14337
307.00	14082
308.00	13825
309.00	13549
310.00	13245
311.00	12989
312.00	12747
313.00	12542
314.00	12379
315.00	12275
316.00	12212
317.00	12209
318.00	12257
319.00	12370
320.00	12540
321.00	12763
322.00	13033
323.00	13365
324.00	13746
325.00	14184
326.00	14696
327.00	15243
328.00	15834
329.00	16477
330.00	17148
331.00	17839
332.00	18523
333.00	19226
334.00	19923
335.00	20620
336.00	21311
337.00	22010
338.00	22704
339.00	23468
340.00	24255
341.00	25088
342.00	26004
343.00	26969
344.00	27970
345.00	29075
346.00	30233
347.00	31423
348.00	32651
349.00	33860
350.00	35051
351.00	36143
352.00	37161
353.00	38107
354.00	38929
355.00	39708
356.00	40512
357.00	41192
358.00	41894
359.00	42652
360.00	43322
361.00	44086
362.00	44827
363.00	45497
364.00	46349
365.00	47342
366.00	48622
367.00	50040
368.00	51569
369.00	53038
370.00	54439
371.00	55815
372.00	57246
373.00	58963
374.00	60914
375.00	62997
376.00	65363
377.00	67868
378.00	70558
379.00	73424
380.00	76383
381.00	79521
382.00	82969
383.00	86410
384.00	90343
385.00	94332
386.00	98335
387.00	1.0285e+05
388.00	1.0747e+05
389.00	1.1225e+05
390.00	1.1720e+05
391.00	1.2246e+05
392.00	1.2826e+05
393.00	1.3411e+05
394.00	1.3972e+05
395.00	1.4567e+05
396.00	1.5152e+05
397.00	1.5710e+05
398.00	1.6231e+05
399.00	1.6594e+05
400.00	1.6815e+05
401.00	1.6903e+05
402.00	1.6817e+05
403.00	1.6600e+05
404.00	1.6231e+05
405.00	1.5739e+05
406.00	1.5163e+05
407.00	1.4474e+05
408.00	1.3671e+05
409.00	1.2829e+05
410.00	1.2033e+05
411.00	1.1196e+05
412.00	1.0332e+05
413.00	95095
414.00	87110
415.00	79147
416.00	71392
417.00	63994
418.00	57115
419.00	50678
420.00	44614
421.00	39061
422.00	34360
423.00	30486
424.00	26715
425.00	23442
426.00	20700
427.00	18108
428.00	16027
429.00	14210
430.00	12595
431.00	11391
432.00	10356
433.00	9281.6
434.00	8410.9
435.00	7678.4
436.00	6966.7
437.00	6460.1
438.00	5953.2
439.00	5540.7
440.00	5139.3
441.00	4774.6
442.00	4502.3
443.00	4209.6
444.00	4011.2
445.00	3823.0
446.00	3644.8
447.00	3494.7
448.00	3384.7
449.00	3285.0
450.00	3175.8
451.00	3125.0
452.00	3016.6
453.00	2983.9
454.00	2951.0
455.00	2966.4
456.00	2928.3
457.00	2909.0
458.00	2906.7
459.00	2909.9
460.00	2956.6
461.00	2927.6
462.00	2936.7
463.00	2950.0
464.00	3004.1
465.00	3061.2
466.00	3054.8
467.00	3056.7
468.00	3152.5
469.00	3183.8
470.00	3232.2
471.00	3318.3
472.00	3383.6
473.00	3450.9
474.00	3516.4
475.00	3609.7
476.00	3662.5
477.00	3768.6
478.00	3852.1
479.00	3954.7
480.00	4088.4
481.00	4291.9
482.00	4512.9
483.00	4846.4
484.00	5200.3
485.00	5741.4
486.00	6333.6
487.00	6676.7
488.00	7368.2
489.00	8266.6
490.00	9097.8
491.00	9962.0
492.00	10716
493.00	11462
494.00	12160
495.00	12712
496.00	13238
497.00	13538
498.00	13852
499.00	14102
500.00	14246
501.00	14346
502.00	14387
503.00	14267
504.00	14066
505.00	13691
506.00	13041
507.00	12336
508.00	11437
509.00	10518
510.00	9584.5
511.00	8617.3
512.00	7766.0
513.00	6942.4
514.00	6208.5
515.00	5598.7
516.00	5041.9
517.00	4565.3
518.00	4129.4
519.00	3824.4
520.00	3561.7
521.00	3415.2
522.00	3294.9
523.00	3291.6
524.00	3336.9
525.00	3456.5
526.00	3631.4
527.00	3820.7
528.00	4028.3
529.00	4219.4
530.00	4327.2
531.00	4404.8
532.00	4367.2
533.00	4242.2
534.00	4050.9
535.00	3818.5
536.00	3535.9
537.00	3238.8
538.00	2917.2
539.00	2663.4
540.00	2425.8
541.00	2214.6
542.00	2055.9
543.00	1906.9
544.00	1818.3
545.00	1763.0
546.00	1739.4
547.00	1682.2
548.00	1705.0
549.00	1718.6
550.00	1740.9
551.00	1786.5
552.00	1805.2
553.00	1875.4
554.00	1911.2
555.00	1928.8
556.00	1937.7
557.00	1962.4
558.00	1966.0
559.00	1927.9
560.00	1900.7
561.00	1886.4
562.00	1853.3
563.00	1764.8
564.00	1699.1
565.00	1640.5
566.00	1578.2
567.00	1529.0
568.00	1452.7
569.00	1399.6
570.00	1342.7
571.00	1292.2
572.00	1237.3
573.00	1212.8
574.00	1201.2
575.00	1154.3
576.00	1144.9
577.00	1153.1
578.00	1130.1
579.00	1121.6
580.00	1132.3
581.00	1146.5
582.00	1153.6
583.00	1130.1
584.00	1172.5
585.00	1226.8
586.00	1239.2
587.00	1295.9
588.00	1376.8
589.00	1449.2
590.00	1561.3
591.00	1664.3
592.00	1848.9
593.00	2031.5
594.00	2202.5
595.00	2430.4
596.00	2627.2
597.00	2885.0
598.00	3167.8
599.00	3431.5
600.00	3645.7
601.00	3878.7
602.00	4080.2
603.00	4272.7
604.00	4407.3
605.00	4505.8
606.00	4586.0
607.00	4628.9
608.00	4637.5
609.00	4637.2
610.00	4555.4
611.00	4493.4
612.00	4414.3
613.00	4295.7
614.00	4164.7
615.00	4052.2
616.00	3926.8
617.00	3800.3
618.00	3684.6
619.00	3585.2
620.00	3493.2
621.00	3420.9
622.00	3364.0
623.00	3333.3
624.00	3324.8
625.00	3333.2
626.00	3355.8
627.00	3408.8
628.00	3481.3
629.00	3561.8
630.00	3658.2
631.00	3726.6
632.00	3821.8
633.00	3940.7
634.00	4059.9
635.00	4149.6
636.00	4301.7
637.00	4477.2
638.00	4702.0
639.00	4969.2
640.00	5349.4
641.00	5837.7
642.00	6447.7
643.00	7127.6
644.00	7994.1
645.00	9079.1
646.00	10325
647.00	11847
648.00	13645
649.00	15657
650.00	17985
651.00	20638
652.00	23593
653.00	26894
654.00	30162
655.00	35167
656.00	39030
657.00	39773
658.00	44306
659.00	48157
660.00	50973
661.00	53214
662.00	54537
663.00	55000
664.00	54365
665.00	52540
666.00	49871
667.00	46432
668.00	42421
669.00	37979
670.00	33246
671.00	28643
672.00	24303
673.00	20461
674.00	16938
675.00	13876
676.00	11299
677.00	9193.4
678.00	7422.4
679.00	6020.8
680.00	4872.6
681.00	3964.8
682.00	3250.3
683.00	2677.4
684.00	2225.4
685.00	1840.1
686.00	1559.0
687.00	1340.5
688.00	1176.9
689.00	1029.2
690.00	937.32
691.00	840.74
692.00	774.14
693.00	710.16
694.00	657.87
695.00	620.45
696.00	579.32
697.00	563.91
698.00	523.45
699.00	493.04
700.00	482.18
701.00	450.80
702.00	429.75
703.00	412.55
704.00	377.46
705.00	354.77
706.00	328.21
707.00	325.47
708.00	291.89
709.00	278.82
710.00	259.69
711.00	222.12
712.00	225.98
713.00	214.42
714.00	207.55
715.00	173.29
716.00	171.77
717.00	165.03
718.00	162.42
719.00	145.63
720.00	125.27
721.00	129.53
722.00	116.74
723.00	117.42
724.00	121.00
725.00	110.41
726.00	109.99
727.00	103.80
728.00	90.043
729.00	100.78
730.00	84.402
731.00	94.721
732.00	84.127
733.00	79.861
734.00	80.686
735.00	67.066
736.00	67.891
737.00	66.378
738.00	62.663
739.00	74.771
740.00	67.478
741.00	68.304
742.00	70.643
743.00	53.031
744.00	55.508
745.00	68.992
746.00	65.690
747.00	66.515
748.00	67.203
749.00	69.267
750.00	67.754
751.00	54.820
752.00	61.012
753.00	60.186
754.00	54.270
755.00	54.545
756.00	71.881
757.00	53.031
758.00	49.454
759.00	53.582
760.00	48.353
761.00	47.665
762.00	45.877
763.00	63.075
764.00	56.609
765.00	50.692
766.00	58.260
767.00	39.410
768.00	56.196
769.00	59.636
770.00	39.961
771.00	49.041
772.00	53.995
773.00	54.270
774.00	34.044
775.00	36.934
776.00	54.132
777.00	33.081
778.00	42.849
779.00	43.262
780.00	60.461
781.00	41.611
782.00	43.125
783.00	57.159
784.00	34.320
785.00	53.719
786.00	50.280
787.00	42.988
788.00	36.246
789.00	51.380
790.00	46.289
791.00	53.582
792.00	41.887
793.00	47.803
794.00	34.594
795.00	51.380
796.00	47.528
797.00	54.682
798.00	43.262
799.00	48.078
800.00	40.374
